L_Quad: EMG 1,L_Quad: Acc 1.X,L_Quad: Acc 1.Y,L_Quad: Acc 1.Z,L_Hamstrings: EMG 2,L_Hamstrings: Acc 2.X,L_Hamstrings: Acc 2.Y,L_Hamstrings: Acc 2.Z,L_AnteriorTibialis: EMG 3,L_AnteriorTibialis: Acc 3.X,L_AnteriorTibialis: Acc 3.Y,L_AnteriorTibialis: Acc 3.Z,L_Calf: EMG 4,L_Calf: Acc 4.X,L_Calf: Acc 4.Y,L_Calf: Acc 4.Z,R_Quad: EMG 5,R_Quad: Acc 5.X,R_Quad: Acc 5.Y,R_Quad: Acc 5.Z,R_Hamstrings: EMG 6,R_Hamstrings: Acc 6.X,R_Hamstrings: Acc 6.Y,R_Hamstrings: Acc 6.Z,R_AnteriorTibialis: EMG 7,R_AnteriorTibialis: Acc 7.X,R_AnteriorTibialis: Acc 7.Y,R_AnteriorTibialis: Acc 7.Z,R_Calf: EMG 8,R_Calf: Acc 8.X,R_Calf: Acc 8.Y,R_Calf: Acc 8.Z
0.12102229351896253,0.12134749320523415,0.022320987654320914,0.3075241792308224,0.0019269737136243406,0.35314234774533343,0.005391904967931887,0.35151504054224103,0.013322096018021404,0.20447108492120628,0.007679732427400453,0.11745278259038291,0.49452243239404475,0.10637443677584682,0.6763425677923396,0.1287060737916154,0.37817843127939366,0.10508428528284018,0.005047260218099723,0.31074289872621613,0.42292576670426413,0.8453627127759074,0.027011516386972172,0.3591684039180969,0.33568175918839077,0.18310348561514556,0.030890353110723117,0.32050192364526026,0.5653059177517585,0.08114844396383873,0.6234793501372476,0.002051006975277535
0.12102229351896253,0.12134749320523415,0.022320987654320914,0.3075241792308224,0.0019269737136243406,0.35314234774533343,0.005391904967931887,0.35151504054224103,0.013322096018021404,0.20447108492120628,0.007679732427400453,0.11745278259038291,0.49452243239404475,0.10637443677584682,0.6763425677923396,0.1287060737916154,0.37817843127939366,0.10508428528284018,0.005047260218099723,0.31074289872621613,0.42292576670426413,0.8453627127759074,0.027011516386972172,0.3591684039180969,0.33568175918839077,0.18310348561514556,0.030890353110723117,0.32050192364526026,0.5653059177517585,0.08114844396383873,0.6234793501372476,0.002051006975277535
0.12102229351896253,0.12134749320523415,0.022320987654320914,0.3075241792308224,0.0019269737136243406,0.35314234774533343,0.005391904967931887,0.35151504054224103,0.013322096018021404,0.20447108492120628,0.007679732427400453,0.11745278259038291,0.49452243239404475,0.10637443677584682,0.6763425677923396,0.1287060737916154,0.37817843127939366,0.10508428528284018,0.005047260218099723,0.31074289872621613,0.42292576670426413,0.8453627127759074,0.027011516386972172,0.3591684039180969,0.33568175918839077,0.18310348561514556,0.030890353110723117,0.32050192364526026,0.5653059177517585,0.08114844396383873,0.6234793501372476,0.002051006975277535
0.04366134468855565,0.5301086948702319,0.07111111111111111,0.5701024788649462,0.46740976735933126,0.6481725452370961,0.18956137518784608,0.20511689715208922,0.5655172413793103,0.33758157799275185,0.22117476196272234,0.3903381622668039,0.029404906859597752,0.4044144884664051,0.41662407388257205,0.3965494003079692,0.2950445961286239,0.4121444928375796,0.09176081000777322,0.336222976231114,0.137256554626735,0.4453125,0.027011516386972172,0.2638718336807836,0.3320665620621938,0.32102730095474846,0.07250162082059838,0.6454075572420653,0.39840116405561593,0.4459791698809661,0.36656011008990014,0.4482725996335161
0.3028403883172389,0.8494568722100737,0.26120987654320976,0.6164881817496819,0.3085812056352867,0.921114920456748,0.2824605536506491,0.20230058176839982,0.4758620689655174,0.47845256711010775,0.14723919867804092,0.5374171252811147,0.07980151945201819,0.772031226344732,0.10018203463890632,0.7575869140211949,0.2441181730170115,0.7445674384130931,0.1917409829311007,0.9882321958319109,0.2602574387793009,0.0556789538907593,0.11878172305851183,0.1167432961133164,0.17980752739582279,0.42873678208684574,0.08173352389214816,0.9472234503802142,0.3446559614163585,0.9775889864381425,0.11852202895776966,0.8441512433764663
0.20984115605496048,0.7174645560448135,0.3389876543209875,0.07877348989023712,0.23143590422646493,0.1391005486045592,0.5607365263515847,0.20545622633997043,0.10391928329232351,0.8311311406203951,0.347656937958671,0.5490572096296201,0.04698300791795741,0.7086476265887189,0.4970223584578649,0.5982521298776685,0.13200977712849885,0.9293732709579995,0.39239865782761674,0.9260309452291547,0.1987569967030179,0.05047062055742596,0.22366195925455715,0.055487334723134496,0.24580588674764167,0.33242859180042117,0.1964690985888232,0.9422756488533593,0.5744630347704248,0.9394902633829844,0.2555456236496883,0.7709251358633195
0.11975414483978702,0.7706816937668192,0.6004567901234569,0.7968005139527923,0.13421179347841375,0.12490123428677385,0.1415952634362362,0.11552035605020823,0.08228761325940039,0.3348833902626156,0.09415725580698764,0.407433891583141,0.16184779828717008,0.49807302448039303,0.6375734927437218,0.8724828096926323,0.14346074389123237,0.8369703546855463,0.5189843535612316,0.7158915850847084,0.10170652269611387,0.06609562055742597,0.2892121068770855,0.016763286403746726,0.37725193983403055,0.3173214246966683,0.5448992180664559,0.9208351755703215,0.20426978555691877,0.8175331998666506,0.36021642515045954,0.7366003979665319
0.03608950661038532,0.7515245009778346,0.291567901234568,0.19643044553280642,0.23143590422646493,0.5127530170311382,0.8549076974764271,0.19283364805368802,0.23793103448275862,0.29026053799920587,0.07583134695864761,0.42274888738130745,0.523040587244332,0.8064898415402686,0.2961997788200511,0.37043322112339067,0.426062017319911,0.4740315661915024,0.20058539835353661,0.8823219583191099,0.09758911085433776,0.04265812055742595,0.22366195925455715,0.02618728046377472,0.7720036949333002,0.2814419028252552,0.4998496672653074,0.8927976335848105,0.2357755940006214,0.8852350356933748,0.30153733946063327,0.6519327111544557
0.03926138262754985,0.5790818575644757,0.0587901234567902,0.20295412999576606,0.1293318288324363,0.7065475040991024,0.42897037125842197,0.2338570274841059,0.25517241379310324,0.6759212197041873,0.5069027665718311,0.37401935529623226,0.3946708930173684,0.7568113262411577,0.1091023527916857,0.5203722978567522,0.179513334708377,0.7835375273385482,0.33435718161788075,0.29613957337094465,0.2369043714019607,0.025050212775907327,0.2105519297300515,0.02564468686637918,0.5757279553638303,0.29088388226510076,0.09369981082370323,0.22705477866001544,0.2697073032358428,0.8785117316248175,0.028124518570740026,0.8281330323579654
0.031248855560702945,0.8196478793829388,0.4112098765432098,0.235572552310564,0.24312280723204469,0.08703639610601288,0.5352090539011104,0.25121307262774417,0.15564342122335803,0.7593465521966489,0.20673701819385076,0.4032570745472773,0.6501460302178584,0.8501401343567978,0.11779341576446448,0.6061436602320559,0.3472008929653473,0.6947679442658388,0.47697338030466074,0.12466585549307653,0.11590276366708195,0.07452937944257404,0.13306679967373236,0.14501527829340033,0.7613091189604364,0.5061610134935791,0.11473557469667511,0.18747236644517626,0.1455373523106618,0.7323713483315918,0.029920198625142187,0.6615605923626158
0.01482317507366678,0.7749431114898917,0.1889876543209876,0.21437057780594537,0.0926861518416499,0.058637767470442165,0.3526684703868883,0.9211088857107349,0.15125313050078013,0.29026053799920587,0.04919377779158523,0.42831797676245886,0.35140299421665877,0.6350521254125625,0.14512671456252527,0.494724824204993,0.1710629202311245,0.8004460193523977,0.4858177957270967,0.22385163348125514,0.21653201266832847,0.045883546109240676,0.027011516386972172,0.8523574263928948,0.6623324983755798,0.6740864164871139,0.658930893531863,0.021935253435723414,0.15006126220525406,0.8964405424743037,0.0901852055498286,0.5860461689896831
0.027275726836853722,0.3470247170359092,0.19990123456790132,0.19806136664854634,0.10630002856085374,0.880094679094257,0.3627502011553899,0.22439009376939406,0.31034482758620696,0.4202488467665299,0.08215062587186826,0.3837652617132473,0.5607624643477359,0.7588207337353515,0.11276249956890906,0.6209893098751922,0.1867390942324843,0.8116076166647722,0.2989795199281368,0.23393832276818857,0.16976644841044722,0.09474145389075933,0.5989923934081727,0.8853414056029928,0.5633558777907233,0.8988055271554378,0.22814456399588065,0.13139728247415403,0.16581416642710545,0.694272625276434,0.14727837000479468,0.515108377336322
0.03365261368075701,0.6301770077726006,0.11676543209876532,0.2469890001207433,0.10210407539402876,0.9006047997755023,0.14906551185179434,0.25121307262774417,0.2556434212233581,0.5288957914078752,0.11257976238686318,0.39768798516612597,0.5409581901461475,0.7111516259304345,0.0439154124444521,0.6308537228181764,0.12778456988987255,0.9547360089787734,0.2680240659496109,0.2541117013420554,0.10170652269611387,0.18067895389075925,0.1311002952450565,0.9685866864665733,0.4742769192643522,0.9252430695870052,0.4180349303080928,0.1280987481229174,0.36329808714213585,0.6875493212078766,0.496181041674032,0.6112176434473272
0.05520631149057519,0.9793202237833286,0.16120987654320967,0.251881763467963,0.07907227512244606,0.22587413610213647,0.09127029175711099,0.2669912954855972,0.25862068965517243,0.48621306315591817,0.030235941051923426,0.5680471168774475,0.5893000303587892,0.811003248376178,0.08188447519390372,0.680175787533098,0.34625604058571546,0.8475381621942022,0.11656345184039488,0.2373005525304997,0.16060962200407514,0.05047062055742596,0.24332700354131565,0.18899391724019762,0.5633558777907233,0.7024832703245084,0.43211291493345155,0.23200258018687037,0.2719692581831389,0.8269664004325451,0.002432594566005296,0.856067440444412
0.01682630684037851,0.734496272780855,0.04454320987654316,0.2763455802040615,0.07714530140882173,0.23060724087473158,0.10859754257020372,0.24016831662724705,0.42021864774215906,0.5094945512933493,0.03295684808028304,0.6868921718131185,0.6266638193788322,0.8501401343567978,0.04071377602722985,0.799017448381729,0.42249664111543717,0.7128640158871254,0.013819399097556218,0.25074947157974425,0.20585511718850197,0.06150854610924069,0.24043308591294305,0.1214552931433304,0.5876736847225859,0.7439570643419708,0.3406060148686188,0.17922603056708475,0.2020078306096227,0.8112786909392449,0.002432594566005296,0.933395561908114
0.03245073462072998,0.8409410138420529,0.11676543209876544,0.26982189574110194,0.047306562777637125,0.21009712019348603,0.19119026189353797,0.25121307262774417,0.20000000000000034,0.5327760394307804,0.02391666213870278,0.43388706614361033,0.7333425681044347,0.7415914261375832,0.037282884430007025,0.6466367835269513,0.47413561759074774,0.6769334703576955,0.1598245301107291,0.2339383227681886,0.4625932104766613,0.01723771277590732,0.4429830420665554,0.2235485621269669,0.3841390630163935,0.7666178149976002,0.4673078764968487,0.20726357255259586,0.21549877988417795,0.7234069429068488,0.5818207883564811,0.7210568047170476
0.025673221423484337,0.8388120492500476,0.122320987654321,0.2339416311948241,0.052528533163191,0.25900586951030224,0.09337652925919833,0.2717247623429531,0.2689655172413791,0.49785380722463374,0.006319278913220647,0.4311025214530346,0.45238620640485455,0.7328943403641122,0.08188447519390372,0.6703113745901136,0.4707602556165935,0.7255453848975126,0.2703797228911789,0.20872159955085504,0.33254250370489713,0.03744978722409262,0.27124165529553135,0.6361195990518892,0.5105544011835519,0.7194079177983724,0.45322989187148977,0.2320025801868703,0.45081105317239206,0.8650651234877031,0.5627897335381591,0.6455423813441148
0.022067584243403222,0.6195321848125744,0.061209876543209835,0.2535126845837029,0.08656322496120059,0.24796195837424698,0.15844516345293366,0.28119169605766486,0.22116066260266842,0.5191951713506123,0.020318290253841746,0.43249479379832245,0.7022215657876529,0.9847800998964258,0.047575559221675494,0.650582548704145,0.3824986456331797,0.7382267539078996,0.44726803133989823,0.1750993019277436,0.5897115064710033,0.12338728722409263,0.16466682639428165,0.9638746894365593,0.3184572767317761,0.7477338561179091,0.5728927611870405,0.21715917560630563,0.11403154386695917,0.8476051077793685,0.002432594566005296,0.7187684888572617
0.03161634710447105,0.6876590517567407,0.122320987654321,0.25514360569944283,0.07260734250242032,0.27793828860068276,0.04914554171536754,0.2654134731998119,0.144356578776642,0.4900933111788234,0.012638557826441294,0.44363297256062534,0.29932745864686433,0.8849284774506821,0.023559318041115735,0.6663656094129199,0.27547052101973113,0.7255453848975126,0.4749068295350107,0.17678041680889917,0.2602574387793009,0.019220620557425933,0.25643703306582133,0.8979067310163634,0.1938292153120108,0.7496222520058782,0.4673078764968487,0.23365184736248862,0.22789914188969576,0.8242565039352079,0.4168849799310235,0.8555928226753955
0.022435075787171337,0.9622885070472871,0.03343209876543204,0.2975475547086802,0.06092043949684096,0.28424909496414286,0.03673284507381172,0.2322792051983206,0.06206896551724162,0.4706920710642974,0.02391666213870278,0.4519866066323525,0.28091918921977016,0.7024545401569634,0.047575559221675494,0.8049360961475196,0.2232667206254278,0.6769334703576955,0.5522954644813255,0.2104027144320106,0.22363013315381253,0.09474145389075928,0.2981172158207679,0.8979067310163634,0.2905788619337081,0.8648144011719939,0.20686516092770918,0.2385996488893435,0.1761165193295497,0.8040865917295361,0.09335704801954894,0.7688741288880419
0.03121572075112871,0.723851449820829,0.04454320987654316,0.2714528168568418,0.10630002856085374,0.2952930061001982,0.06155823835692336,0.23070138291253528,0.13056347532836632,0.4474105829268662,0.03295684808028304,0.4533788789776404,0.20087192404468215,0.7046288116003312,0.023786986000559226,0.6782029049445011,0.6431480566879889,0.6917284008698137,0.5025456277301231,0.27428507991592227,0.33254250370489713,0.10577937944257407,0.052440118098022515,0.11517263043664507,0.6788286018063893,0.7270324168681069,0.5223744426658816,0.2880776641578926,0.16355221147980928,0.461198084233115,0.6234793501372476,0.4684267337966909
0.030414468044444018,0.6365639015486161,0.0432345679012347,0.3057021602873797,0.061604450975993555,0.27004978064635754,0.0685790300305473,0.22596791605517938,0.10391928329232351,0.45905132699558177,0.018957836739661938,0.6785385377413912,0.08263070148081657,0.6850603686100213,0.01966991608389184,0.9139133440531665,0.47498546285521975,0.8490579338922147,0.10944964085264519,0.983188851188444,0.3055029339637278,0.090154379442574,0.34820723973736084,0.16543393209012766,0.6470457114449188,0.8081625245329207,0.19083790473867962,0.2320025801868703,0.33179227869843325,0.7418045488974864,0.1725482303527864,0.768874128888042
0.048442653944849555,0.5982425388925224,0.07267901234567911,0.31222584475033927,0.06999635730964326,0.2747828854189527,0.10438506756602936,0.1991449371968292,0.055643421223358344,0.4008476066520039,0.04287449887836472,0.6660080866338004,0.057696727147581096,0.7698569549013642,0.031907291854172216,0.8941845181671976,0.4144210363268579,0.8031533706578474,0.2027965022091457,0.9579721279711106,0.31823853536444235,0.11458333333333333,0.2556455757278602,0.10849016192135248,0.43218396425862593,0.45139753274247496,0.11191997777160317,0.6564083358960835,0.42115852757831895,0.675040303353065,0.5200772856243646,0.7645348060529785
0.1361798253268232,0.7089486976767926,0.21101234567901245,0.3562607148753166,0.06126244523641725,0.9952668952274049,0.047516655009675494,0.1565437354806261,0.35814968222491783,0.41054822670926694,0.020318290253841746,0.6312012780016039,0.10526415771120323,0.7568113262411577,0.11779341576446448,0.8744556922812291,0.27547052101973113,0.5543469032572872,0.11774128031117886,0.729340504133953,0.11590276366708195,0.14322916666666663,0.1815739089144033,0.1277379558500157,0.14847887650586594,0.24178558917790394,0.2842940763671832,0.6448634656667555,0.1761165193295497,0.8874761370495606,0.29995141822577304,0.7393633315953343
0.02086570518337619,0.9771912591913233,0.18656790123456804,0.6605230518746591,0.1316008082856368,0.2621612726920324,0.06481601176830745,0.13445422347963187,0.25517241379310346,0.47457231908720254,0.007679732427400453,0.6131017375128617,0.08263070148081657,0.7481142404676866,0.09583570954223844,0.846835336040873,0.4027800553338048,0.7530216844200178,0.1764078090277966,0.6587336791254191,0.47722036092557635,0.1875,0.26299204782807417,0.04519233515149784,0.2008400592701048,0.7269615013502488,0.046538562328750886,0.6597068702473201,0.2933366595686197,0.9394902633829844,0.3208855785259273,0.6478306972039006
0.09150305910339167,0.8707465181301256,0.276567901234568,0.9484761777166029,0.052528533163191,0.2369180472381917,0.12800313683092254,0.11078688919285232,0.1655172413793103,0.4357698388581506,0.07719180047282756,0.5866485629523923,0.1810490636031887,0.7350686118074798,0.11642105912557538,0.7994861539145484,0.23941793020258642,0.8390839161872774,0.11601067587649269,0.6331807329318545,0.1336777796323925,0.019220620557425933,0.08521519190928668,0.04711997030013994,0.20456562817061807,0.7515106478938474,0.1857481839896708,0.3392049466020598,0.24139009116425095,0.7771933754553071,0.37671000599300525,0.7302100681561909
0.042833884998056716,0.6493376891006473,0.441567901234568,0.9337978876749438,0.20159716559528032,0.2448065551925169,0.06318712506261541,0.08869737719185812,0.1655172413793103,0.3717457464802149,0.2604508889562262,0.5824717459165288,0.2354065310359269,0.7698569549013642,0.28933799562560547,0.7994861539145484,0.23471768738816134,0.47191800468977124,0.34437942551110057,0.09068496078295203,0.24400249188744474,0.12239583333333333,0.4770691188302701,0.09004197960990375,0.2734368599942474,0.24933917272978037,0.030890353110723117,0.7740503969402929,0.5187338696113156,0.7445144453948235,0.12655651454184152,0.6359145001359549
0.028076979543538404,0.7110776622687979,0.6099012345679012,0.8326807784990699,0.17278444418282488,0.2605835711011673,0.0791102175409832,0.024006663474660725,0.269436524671634,0.4357698388581507,0.5479780795077653,0.5420958479031808,0.20428552871914515,0.7633341405712608,0.45676550557007906,0.7738386802627891,0.44990880322500987,0.6663656628490395,0.07407197916290127,0.6152880465029386,0.11590276366708195,0.125,0.20241400029187667,0.07276465716651911,0.36339521295215066,0.44950913685450583,0.41459664721681955,0.26498792369923635,0.28998411735228624,0.7221034318329659,0.32976673744114426,0.6771041856121001
0.027209457217705253,0.6621114766526784,0.6793456790123457,0.703838010355618,0.3928754511432866,0.26531667587376245,0.12800313683092254,0.017016715955757083,0.8275862068965516,0.49785380722463374,0.8178112891022866,0.5852562906071045,0.35193165814260846,0.6502720255161369,0.397067991778402,0.7915946235601609,0.27547052101973113,0.9272597094562683,0.5080733873691455,0.23393832276818857,0.24400249188744474,0.10156249999999997,0.2607536316759268,0.21569523374361024,0.23917955411815559,0.6854877073327865,0.31253125868296755,0.28148059545541937,0.3012131116795454,0.6023874696728178,0.07802732475512034,0.4528661859501472
0.031248855560702945,0.8664851004070531,0.11676543209876532,0.20295412999576606,0.38992246021093324,0.27320518382808767,0.0858783867891791,0.058718753761937394,0.47633307639577205,0.2844401659648481,0.30658162502273684,0.5095716783753574,0.0673159460454955,0.6546205684028724,0.24782420729920934,0.8152692146233232,0.41893126491096333,0.7213182618940501,0.10053294888722972,0.14483923406694338,0.1336777796323925,0.15265437944257398,0.14407436890782646,0.9340320415798041,0.3390774060202878,0.709965938358527,0.6103618465743748,0.19242016797203115,0.5883626561426466,0.48136799643878686,0.33124523324857436,0.8103011232486952
0.02246821059674556,0.6365639015486161,0.4443456790123458,0.14097912759764988,0.21135709488723547,0.9763344761370243,0.11303474594534534,0.15654373548062608,0.2275862068965517,0.2922006620106585,0.16294079822955673,0.19441622275409812,0.10526415771120323,0.5154671960273352,0.2877379710272729,0.5973147188120298,0.21519111583684847,0.7382267539078996,0.4859623488130556,0.15996926799734346,0.21653201266832847,0.07031250000000001,0.27976317448646,0.9591626924065454,0.2317841988314536,0.7685062108855694,0.3105007740542302,0.24684598476743502,0.7875905624778249,0.9574190742324705,0.31538602089997264,0.8716110336938963
0.0320169734578134,0.4598598404121847,0.37656790123456796,0.10346794193563219,0.08656322496120059,0.13752284701369416,0.005391904967931887,0.8816633285661024,0.6073675591543924,0.6169594356419257,0.5580889257689183,0.15905250518378644,0.2053986152907595,0.6783726903307441,0.6411198055412233,0.5440468889199145,0.27547052101973113,0.8258087573731717,0.17688830844871942,0.25074947157974425,0.10170652269611387,0.06088728722409264,0.07210516238478101,0.19056458291686895,0.37380170374214167,0.2380087974019657,0.05904632236144094,0.25014451911867164,0.3498071378675807,0.861051715916483,0.18639945780978492,0.9176146597741214
0.025673221423484337,0.8302961908820269,0.3071234567901235,0.19153768218558676,0.1516796176248665,0.0874573998436606,0.05102705084648746,0.8359064822783286,0.555643421223358,0.7030829558645236,0.35966356789379017,0.20137758448053744,0.29534801756664164,0.5410112983050639,0.16845677742364043,0.11356390808807927,0.10740815307408765,0.865966425906064,0.41008748867248873,0.29613957337094465,0.1738838602522234,0.021824787224092604,0.10567169353400617,0.18271125453351228,0.5188024528989567,0.33054019591245204,0.0942412839248379,0.3194137404946402,0.8071046810136762,0.6673794090022048,0.0513838480094695,0.9221912914936929
0.03645699815415343,0.6557245828766629,0.058790123456790265,0.16381202321800845,0.14782567019761772,0.17223228201272509,0.2192734285880337,0.9069084851386672,0.706425544293883,0.9067959770670464,0.16926007714277738,0.28212938050723335,0.11375170379759829,0.6542908405045247,0.23638843104865234,0.12172685571642637,0.21989135865127352,0.8997834099337628,0.1266579722765943,0.34825413468676736,0.11590276366708195,0.046874999999999986,0.04012154591147784,0.1638632664134563,0.44292037711723314,0.5665896819085906,0.10918559391159803,0.296324000035984,0.5915678856017577,0.6853082198516909,0.07115415073150663,0.8578811385351813
0.028811962631074647,0.9154512860231726,0.05565432098765428,0.19969228776428627,0.22009100696046174,0.9810675809096195,0.3456476787132645,0.23859049434146176,0.4384020419130134,0.5521772795453064,0.5926517643285604,0.30719028272241494,0.06565560930802651,0.8370945056965913,0.015552846167224452,0.7753428573185668,0.19903990625968987,0.9272597094562683,0.23168540541802146,0.2995018031332558,0.1535115015185911,0.08234187944257404,0.151556796869776,0.19056458291686895,0.3947105148406926,0.4117412190951237,0.0710938223580625,0.3210630076702585,0.4564718824072623,0.9166104546799755,0.006238805529669706,0.8990708240113264
0.015591292970777238,0.972933330007313,0.061209876543209835,0.20621597222724586,0.2972363083692834,0.28109369178241284,0.10531187510435885,0.2322792051983206,0.6478048546387107,0.821430520563132,0.68744094802687,0.25149938891090046,0.07697233742321981,0.6455937547310536,0.015552846167224452,0.771397092141373,0.25509410420394624,0.9272597094562683,0.06239140737797462,0.31967518170712267,0.18808010122319144,0.031249999999999972,0.05978659019823634,0.22197789645029556,0.3983948434826288,0.3966340519913709,0.14351423011359407,0.32766007637273176,0.5497383418148702,0.8941994411181179,0.03626388356458287,0.8738993495536821
0.07368211420541733,0.9324830027592141,0.15009876543209855,0.21600149892168527,0.2904293700096815,0.15961066928580472,0.42734148455273,0.23227920519832054,0.30000000000000004,0.7418854360935756,0.44730834932448554,0.27516801878079405,0.07980151945201819,0.8086641129836363,0.015552846167224452,0.6328266054067733,0.46225711880979536,0.9188054634493434,0.02715829877418967,0.3163129519448115,0.19013880714407952,0.034845620557425946,0.0925616640095005,0.19998857697689695,0.34230809181787675,0.43440196975075296,0.08720229161215844,0.3392049466020598,0.7760621932823808,0.9731067837257709,0.01406098627654048,0.8853409288526114
0.21633823080486647,0.9282250735752038,0.32232098765432093,0.21763242003742517,0.4647987821665542,0.1816984915579153,0.39925831785823435,0.9337314639970173,0.379781352257841,0.7865082883569854,0.4662661860641475,0.28491392519780917,0.09560776633347884,0.7064733551453513,0.5004532500550878,0.5243180630339459,0.32344911417540817,0.7445674384130931,0.04926933733027962,0.3179940668259671,0.18808010122319144,0.09213728722409267,0.0532315754359835,0.19841791130022562,0.36334062369215875,0.4249599903109074,0.10128027623751736,0.3326078778995866,0.5776682642295359,0.8108098957980934,0.026748356155421846,0.9150890350298273
0.10493096976612024,0.8579727305780943,0.38898765432098764,0.20132320888002617,0.3202681086408659,0.21798562814781125,0.3667100537341362,0.9400427531401585,0.503448275862069,0.8873947369525204,0.6242481588946637,0.2988366486506877,0.10524557147129823,0.5847141543167561,0.3151851038050554,0.4966977067935898,0.48596139404215455,0.8369703546855463,0.05479709696930211,0.28605288408401125,0.1738838602522234,0.02442895389075927,0.01311002952450552,0.22511922780363827,0.4082373196539563,0.48161186694998076,0.044968337736082026,0.32271227484587683,0.6300615202593117,0.8175331998666506,0.0457794109737439,0.9150890350298272
0.04046326168757687,0.7259804144128343,0.3778765432098765,0.18175215549114734,0.36076773305890136,0.1043911136055283,0.6545625123527173,0.28119169605766486,0.5340117511904349,0.9397780852617403,0.5041818595434714,0.2890907422336727,0.06112891806194916,0.6716850120514669,0.476437008874528,0.8271065101549046,0.2984674616603579,0.901896971435494,0.021630539135167184,0.2658795055101444,0.18808010122319144,0.014012287224092595,0.027011516386972172,0.23611388754033752,0.3878233916583297,0.4570627204063823,0.009773376172684754,0.32436154202149514,0.32664110224721105,0.8264976052913937,0.026748356155421846,0.9379721936276856
0.04166514074760391,0.7366252373728602,0.5000987654320986,0.17849031325966755,0.3925334454037102,0.053904662697847036,0.2754397619770252,0.292236452058162,0.4275862068965517,0.8835144889296153,0.24509142410142512,0.2904830145789606,0.08430962445819054,0.545906996234484,0.015552846167224452,0.5835045406918518,0.14816098670565744,0.9314868324597306,0.11007469335952685,0.26251727574783323,0.16060962200407514,0.03744978722409262,0.02045650162471934,0.2596738726904075,0.25982757466382966,0.48161186694998076,0.044968337736082026,0.31116740461654874,0.40963015838287503,0.833220909359951,0.04260756850402356,0.9224286003782012
0.11013911235957073,0.7515279895168967,0.5056543209876542,0.22578702561612463,0.281353452196879,0.17538768519445516,0.09991997013642696,0.2685691177713825,0.3133220960180211,0.9106762250899515,0.150495435866187,0.3628811765339294,0.21843143886313685,0.2676002514834095,0.5210385996384247,0.40199934254094044,0.16431219628281604,0.94839532447358,0.1266579722765943,0.2591550459855221,0.22363013315381253,0.06869978722409265,0.019665044286758353,0.2581032070137362,0.33899492550313376,0.502384221717641,0.030890353110723117,0.31611520614340366,0.2200226897787701,0.8152920985104649,0.05212309591318458,0.9247169162379871
0.07275374576696991,0.9963519405193703,0.3500987654320987,0.2779765013198014,0.1293318288324363,0.23376264405646163,0.2824605536506491,0.21492316005468226,0.21034482758620687,0.9067959770670462,0.4487654005702013,0.37958844467738373,0.21896010278908648,0.7588207337353515,0.5339605665075925,0.650582548704145,0.2503938613895212,0.9314868324597306,0.09349141444245952,0.2574739311043665,0.23278695956018464,0.06088728722409264,0.006555014762252687,0.2502498786303795,0.18681837135391677,0.47216988751013517,0.044968337736082026,0.31281667179216704,0.28772216240499016,0.8264976052913937,0.03626388356458287,0.9292935479575589
0.039662008980892186,0.9048064630631468,0.10222222222222224,0.6507375251802198,0.25639467821167194,0.7822771804606243,0.31149842193793525,0.12814293433649065,0.2098738201559522,0.8097897764944164,0.2655063120868027,0.41578752565486815,0.4702286394261891,0.7738757698897519,0.3047770078131082,0.6742571397673074,0.2984674616603579,0.8997834099337628,0.09349141444245952,0.26251727574783323,0.12657965914690847,0.04005395389075929,0.025428601711050196,0.2408258845703515,0.2905788619337081,0.4702814916221661,0.06608531467412039,0.30951813744093043,0.2594049503333984,0.833220909359951,0.03626388356458287,0.9201402845184153
0.041698275557178144,0.7515210124387725,0.2449012345679013,0.8424663051935094,0.25446770449804773,0.5537732583936291,0.19447592935938282,0.04762646829999196,0.40689655172413786,0.41830872275507724,0.12006629935119215,0.679930810086679,0.7305133860756363,0.745610241125971,0.32947942731311247,0.6801757875330979,0.21856647781100275,0.9674173779891606,0.05472482042632262,0.2894151138463224,0.10170652269611387,0.016616453890759265,0.07131370504682003,0.23140189051032356,0.5258132968570506,0.4702814916221661,0.06061654695410979,0.33590641225082324,0.11403154386695917,0.8242565039352079,0.033199466522292574,0.9313445549328365
0.0423392777225259,0.7749396229508297,0.11045679012345685,0.6565412979991607,0.38538450130453195,0.2732051838280876,0.3596892620605124,0.009466933714711783,0.23103448275862068,0.29026053799920587,0.23245286627498385,0.5304557635546753,0.8069013008531916,0.6654919256197114,0.2893379956256054,0.6703113745901136,0.1040327910999334,0.9589631319822357,0.06681361508919262,0.30454514777672254,0.11796146958797,0.016616453890759265,0.026220059049011184,0.19213524859354028,0.43963510205965234,0.42495999031090753,0.03792934542340257,0.35569761835824276,0.45081105317239206,0.9484546688077277,0.01258249046911039,0.9082240874504698
0.02640820451102056,0.6067583972605433,0.038987654320987594,0.8016932773000118,0.10630002856085374,0.9842229840913497,0.20523184524078583,0.03642393007091631,0.28322962811990987,0.5521772795453064,0.2514107030146458,0.599179014059983,0.6173461049237027,0.9673859283494836,0.2354729975492072,0.9099675788759726,0.27547052101973113,0.7466809999148243,0.13646338654087584,0.33816744539983384,0.14435467511221903,0.00520833333333328,0.033566531149225004,0.18114058885684095,0.5175652451416458,0.4362903656387222,0.03949957001607143,0.9884551297706718,0.27423121313043497,0.9686245810133994,0.061428864502803576,0.8990708240113264
0.013621296013639744,0.5790818575644757,0.08379012345679022,0.8016932773000118,0.0926861518416499,0.2195633297386763,0.3245853036923927,0.007549782241045265,0.16206896551724131,0.7702292325466809,0.5926517643285604,0.5922176523335437,0.3607207086717883,0.6937574543834923,0.21728927208392623,0.8705099271040354,0.22796696343985282,0.7234318233957814,0.06902471894480161,0.341529675162145,0.18808010122319144,0.02442895389075927,0.027011516386972172,0.17956992318016962,0.6499464751738916,0.4457323450785677,0.011343600765353611,0.3540483511826245,0.1862549263877714,0.8242565039352079,0.07538497136957308,0.9105124033102555
0.02560695180433587,0.9431278257192403,0.39712345679012356,0.8245261729203704,0.09075917812802556,0.6137259188465006,0.38777242875500795,0.053985286904581486,0.3108158350164616,0.443530334903961,0.36515772345261727,0.6660080866338004,0.7211584991406969,0.9043320564918182,0.16239500652836114,0.664392726824323,0.179513334708377,0.7572488074234802,0.1475189058189208,0.3465730198056117,0.18808010122319144,0.03224145389075928,0.01311002952450552,0.17014592912014162,0.5571419477470073,0.4268483861988766,0.02542158539071252,0.9967014656487633,0.3498071378675807,0.8309798080037653,0.06396633847857985,0.8853409288526114
0.03121572075112871,0.9686754008233025,0.3000987654320987,0.2649291323938822,0.08883220441440122,0.6153036204373656,0.17038050929809426,0.21492316005468226,0.2891841649835381,0.46875194705284484,0.5789425461825465,0.6423394567639068,0.7022215657876529,0.9695601997928514,0.09560804158279494,0.7738386802627891,0.27124531378110484,0.9209190249510747,0.25144078703254347,0.6724459524622279,0.1738838602522234,0.047866453890759296,0.033566531149225004,0.13559128423337238,0.28704614532466516,0.39096886432746353,0.09229201236116734,0.9653653893120157,0.2391281362169549,0.9887944932190712,0.15087482214891715,0.8601694543949672
0.0320169734578134,0.7195935206368187,0.4556543209876541,0.24046531565778373,0.09790812222720378,0.11070191996898847,0.42172485121383096,0.1691663137669085,0.22116066260266842,0.6654625359282407,0.6016919502701408,0.5490572096296201,0.5734751972374235,0.6390709404009502,0.548599566395929,0.5548487129285375,0.2950445961286239,0.7635894919286738,0.32330166233983576,0.9092197964175991,0.1809819807377074,0.03744978722409262,0.10567169353400617,0.06805266013650513,0.7736811965335434,0.364531321895896,0.1964690985888232,0.9538205190826875,0.2391281362169549,0.9327669593144272,0.233659910608618,0.7960966103209636
0.05120004795715174,0.6323059723646056,0.5560123456790124,0.9142268342860649,0.07907227512244606,0.17223228201272503,0.15072229261194725,0.11552035605020823,0.28918416498353827,0.20295495748383904,0.14398296148989478,0.4297102491077468,0.9172208137364218,0.4054490609929261,0.43446471018813076,0.846835336040873,0.5615421635377237,0.9589631319822357,0.5328037526587879,0.7646439166382202,0.18808010122319144,0.04005395389075929,0.2892121068770855,0.014135991090041957,0.3876171903654445,0.3173214246966683,0.3837062941060965,0.929081511448413,0.3798683355593203,0.8018454903733504,0.2771141524437866,0.7320237662469603
0.02560695180433587,0.8515823482630168,0.23767901234567906,0.17685939214392765,0.04345261535038844,0.8169866154596553,0.7495958223720682,0.24490178348460298,0.269436524671634,0.49397355920172853,0.2042093066285625,0.3419970913546115,0.8069013008531916,0.7521330554560743,0.19258685258392194,0.29013689976749835,0.4270068696995427,0.6219808713126849,0.4233541118061427,0.7545572273512866,0.5133090297036311,0.034845620557425946,0.302322136401591,0.013621955050404061,0.3703514676502528,0.3192098205846374,0.6047306527242312,0.91258883969223,0.2798457102940645,0.9865533918628855,0.3652913731020121,0.6633742904533849
0.012051925409844583,0.8175224033299957,0.20222222222222222,0.18175215549114734,0.03823064496483457,0.842229840913496,0.2433967427037831,0.2669912954855972,0.49608071670767656,0.6817415917385451,0.6648847394023472,0.3837652617132473,0.5749083744917276,0.6024380537620461,0.2705835130411588,0.5874503058690455,0.27462067575525906,0.7312922795989875,0.19671596660622087,0.30958849242018927,0.2460611978083328,0.013020833333333287,0.24332700354131565,0.04135134363309251,0.2804477039523414,0.21534804674633642,0.07312430698679985,0.24849525194305333,0.1862549263877714,0.9305258579582415,0.03266997743811948,0.7320237662469602
0.02961321533775934,0.8409375253029907,0.5056543209876542,0.19153768218558676,0.07260734250242032,0.07757018656082264,0.2684189703034012,0.6216619805994088,0.2891841649835381,0.6615822879053355,0.10310084401703222,0.4032570745472773,0.460138165163762,0.6981059972702278,0.12648606595780035,0.7383267936680457,0.25556913977974505,0.6186797302035164,0.3940569857193235,0.13139031501769882,0.31823853536444235,0.06411271277590737,0.2556455757278603,0.12930862152668704,0.24249272043289863,0.4249599903109074,0.13647523780091464,0.19406943514764946,0.3113515187377671,0.6965137266326197,0.01141863289099323,0.7050385936985466
0.03365261368075701,0.6429507953246316,0.10222222222222224,0.21110873557446555,0.047306562777637125,0.10596881519639335,0.1631070951990422,0.9637100874269381,0.26849450981112427,0.36204512642295195,0.07087252155960692,0.42831797676245886,0.6606140037244124,0.7282160695790288,0.051920297097786304,0.595341836223433,0.26702010654247854,0.7186109105886005,0.4504401340373529,0.20199714002623273,0.31823853536444235,0.031249999999999972,0.027011516386972172,0.8539280920695662,0.22146018855861657,0.6514256658314846,0.6272554281248054,0.032441251937056034,0.13766090019973615,0.8874761370495606,0.08701336308010833,0.5196850090558938
0.029646350147333557,0.37044332754796644,0.21101234567901245,0.2404653156577837,0.09949309020125181,0.9321588315928033,0.18442209264534212,0.22281227148360877,0.15125313050078013,0.37950624252602533,0.06815161453124717,0.40464934689256526,0.49318301126012665,0.687234640053389,0.029276412556115745,0.56574859739448,0.3111007985906227,0.6642521013473084,0.2746573775164379,0.22721386324356627,0.42292576670426413,0.07130395389075932,0.7412362137490589,0.8492160950395522,0.46723818404909595,0.7930553574291678,0.4991457680340394,0.12315094659606256,0.22789914188969576,0.6965137266326197,0.11238810283787093,0.5608746945320388
0.020031317667117274,0.7153355914528082,0.13898765432098745,0.26982189574110194,0.04345261535038844,0.9242703236384779,0.050774428421059586,0.23070138291253528,0.08275862068965505,0.3969673586290987,0.05551305670480587,0.42135661503601957,0.10041737578243604,0.6459234826294014,0.10246982477724059,0.9218048744075538,0.35067126205466126,0.9674173779891606,0.27189349769692667,0.21208382931316616,0.33254250370489713,0.17807478722409262,0.17291643386173894,0.6157009452551617,0.6252162656562585,0.9309082572509126,0.3758009764320161,0.12150167942044421,0.22789914188969576,0.7099603347697343,0.534243151310676,0.6020643800081839
0.02761008357104761,0.6748852642047096,0.03343209876543204,0.2828692646670211,0.0881481929352485,0.9747567745461593,0.12755368008898835,0.25121307262774417,0.13448275862068976,0.47845256711010775,0.039276126993503684,0.6854998994678306,0.19066828250110307,0.6524462969595046,0.09560804158279494,0.7970445657931322,0.4736130784573691,0.8602195312045892,0.12983007497404886,0.2339383227681886,0.3055029339637278,0.031249999999999972,0.14500178210752315,0.19056458291686895,0.31467711857127095,0.8799215682757467,0.4250739226207721,0.22045770995754224,0.1862549263877714,0.8520873104917399,0.002432594566005296,0.7942829122301943
0.021600688270912414,0.6855300871647356,0.11120987654320988,0.2779765013198014,0.07521832769519739,0.24638425678338197,0.05616633338899147,0.24805742805617353,0.0891841649835387,0.5385964114651381,0.0139990113406211,0.45059433428706464,0.06565560930802651,0.858837220130269,0.005489426555556517,0.8029632135589228,0.25086889696531994,0.7065233313819319,0.038069264966275676,0.2339383227681886,0.18808010122319144,0.03807104610924067,0.12454528048280368,0.14815660964674304,0.4120041288130466,0.7382918766780635,0.36876198411933664,0.16108409163528342,0.2697073032358428,0.820243096363988,0.002432594566005296,0.8766622831824845
0.03368574849033123,0.9580305778632767,0.122320987654321,0.2632982112781423,0.07907227512244606,0.208519418602621,0.15608630352541827,0.24647960577038824,0.055643421223358344,0.501734055247539,0.020318290253841746,0.4450252449059132,0.0673159460454955,0.8544886772435334,0.07159180040223526,0.6584740790585325,0.2916217305968898,0.6325486788213407,0.1045469337205045,0.23898166741165525,0.19013880714407952,0.01723771277590732,0.5118106970702101,0.18899391724019762,0.30807867719894727,0.7458454602299399,0.3758009764320161,0.20891283972821417,0.5095981350333899,0.6584150035774617,0.553274206128998,0.7096152254181184
0.031649481914045284,0.7195935206368188,0.133432098765432,0.2404653156577837,0.047306562777637125,0.22114103132954133,0.012412696641555821,0.26068000634245597,0.08965517241379317,0.44935070693831874,0.04919377779158537,0.43945615552476175,0.12223924988399336,0.7655084120146287,0.08531536679112647,0.8088818613247134,0.363352102542506,0.6705927858525019,0.1653522897497516,0.23393832276818857,0.2602574387793009,0.03224145389075928,0.5144327029751112,0.9450267013165035,0.6194147381983129,0.7571758355577546,0.389878961057375,0.21550990843068735,0.1556757593688836,0.8108098957980934,0.5913363157656422,0.6821554351006883
0.07126450043384325,0.5854687513404913,0.022320987654320914,0.2535126845837029,0.12740485511881183,0.23218494246559662,0.05453744668329943,0.28119169605766486,0.2620689655172412,0.4803926911215603,0.018957836739661938,0.4464175172512011,0.13155696433912276,0.9826058284530579,0.02012842644389291,0.6545283138813388,0.6374977427219662,0.7445674384130931,0.2924907614472688,0.20704048466969946,0.3904158729205518,0.15463728722409262,0.28383213920554734,0.9670160207899019,0.3703514676502528,0.8081625245329207,0.47434686880952814,0.2237562443087788,0.21549877988417795,0.899150438971641,0.5754771034170404,0.684443750960474
0.08653529232194661,0.9686754008233026,0.18898765432098746,0.2453580790050034,0.21135709488723547,0.25742816791943723,0.043753636747435654,0.2654134731998119,0.20642554429388363,0.5172550473391597,0.006319278913220647,0.44224070021533746,0.08598854743556451,0.7220229831472733,0.04071377602722985,0.6722842571787104,0.35067126205466126,0.6875012778663514,0.3090740403643363,0.23057609300587745,0.11590276366708195,0.019220620557425933,0.6104078302274738,0.2643858697204215,0.294111578542751,0.7571758355577546,0.21390415324038864,0.27653279392856445,0.1761165193295497,0.8264976052913937,0.2678083838541676,0.777790083442677
0.05264230282918419,0.8664885889461152,0.12232098765432088,0.2584054479309226,0.13806574090566268,0.25585046632857217,0.014041583347247867,0.26068000634245597,0.42805721432680655,0.5075544272818968,0.00495882539904084,0.4464175172512011,0.12789761394159,0.7372428832508476,0.0921771499855722,0.6663656094129199,0.4027800553338048,0.7001826468767385,0.43621251206185324,0.24570612693627752,0.23278695956018464,0.07130395389075932,0.5268872310233915,0.2565325413370648,0.4049932848549526,0.9195778819230981,0.21390415324038864,0.21715917560630563,0.3012131116795454,0.7951221863047931,0.11038011794626779,0.7711624447478277
0.03285136097407232,0.67914319338872,0.050098765432098714,0.2600363690466625,0.19740121242845535,0.2605835711011673,0.07559982170417123,0.26068000634245597,0.3315054901888752,0.462931575018487,0.0139990113406211,0.4519866066323525,0.16750616234476667,0.7546370547977899,0.02024226042361466,0.6762300223559042,0.1710629202311245,0.6896148393680825,0.4306847524228308,0.2995018031332558,0.18808010122319144,0.0634914538907593,0.3285421954506023,0.07276465716651911,0.44620565217481395,0.8364884628524571,0.3154280686731058,0.23695038171372523,0.44113596682657763,0.6068696723851894,0.2913874435575281,0.5357032200743945
0.015190666617434904,0.6642404412446837,0.038987654320987594,0.2779765013198014,0.07907227512244606,0.26531667587376245,0.09666219672504303,0.24963525034195885,0.1724137931034482,0.44935070693831874,0.012638557826441294,0.4519866066323525,0.28572879866872736,0.7241972545906411,0.006404860055001617,0.8009903309703258,0.18758893949695632,0.719204700392319,0.28143524216922383,0.36674639837947853,0.18808010122319144,0.2083333333333333,0.26299204782807417,0.17171659479681295,0.37380170374214167,0.8176045039727662,0.14790005163133496,0.24519671759181674,0.5280002838594634,0.6965137266326197,0.049693047364838316,0.8194543866878385
0.034453866387441696,0.6386928661406213,0.05722222222222227,0.2861311068985009,0.15917056746362104,0.28267139337327785,0.09104556338614388,0.21965662691203816,0.31034482758620696,0.4163685987436247,0.017597383225482134,0.6715771760149519,0.0673159460454955,0.6937574543834923,0.004573993056111417,0.9139133440531664,0.33912528817676796,0.683274154862889,0.05479709696930211,0.9411609791595548,0.11590276366708195,0.344841879442574,0.2892121068770855,0.1120312990833024,0.3148966688655709,0.6987064785485703,0.05357755464143034,0.2880776641578926,0.8609045322676744,0.7826131684499814,0.2850437586180875,0.8240310184074103
0.02480569909765118,0.7089486976767927,0.1932345679012347,0.31222584475033927,0.10698404004000608,0.29213760291846813,0.10789546340284133,0.20387840405418514,0.2901261798440478,0.40860810269781433,0.02663756916706239,0.6562621802167854,0.08263070148081657,0.7024545401569634,0.07662271659779063,0.8981302833443916,0.20241526823384415,0.647343609333459,0.15429677047170665,0.9226687154668436,0.11590276366708195,0.03744978722409262,0.03933008857351685,0.04135134363309251,0.32911120907322927,0.43440196975075296,0.05904632236144094,0.296324000035984,0.5186031899410934,0.9058737430401981,0.280920363407451,0.7347866998757626
0.03485449274078403,0.7132066268608032,0.1487901234567902,0.3040712391716398,0.13806574090566268,0.27004978064635754,0.08332269254515756,0.17547760291004968,0.3108158350164616,0.48621306315591817,0.06455324264638627,0.6381626397280433,0.15532209338102881,0.7307200689207444,0.06152679357001021,0.8744556922812291,0.14346074389123237,0.7530216844200178,0.12113021263757183,0.8318885118844428,0.33254250370489713,0.02703312055742594,0.2498820183035685,0.02198931947339862,0.17980752739582279,0.4646163039582587,0.08016329929947914,0.35569761835824276,0.5744630347704248,0.9125970471087554,0.22097254072973663,0.812589439108481
0.0584583127784082,0.7493990249248914,0.19767901234567914,0.3432133459493974,0.1293318288324363,0.24796195837424698,0.029712053400187784,0.16127720233798198,0.4586206896551724,0.4512908309497714,0.04559540590672433,0.6228476439298767,0.1912527051467678,0.7546370547977899,0.07799507323667976,0.8547268663952605,0.18758893949695632,0.8786477949164512,0.05479709696930211,0.8150773630728873,0.28062979751293315,0.04947916666666666,0.38098231354862483,0.013621955050404061,0.3218250323065108,0.5533709106928069,0.2490991148037859,0.9934029312975268,0.541954553846426,0.9484546688077277,0.23239117362072984,0.6981736461191891
0.029245723793991218,0.983578152967339,0.16879012345679023,0.6637848941061391,0.18151835625605112,0.23376264405646166,0.11396155348367468,0.1502324463374849,0.5793103448275863,0.4396500868810558,0.0139990113406211,0.6131017375128617,0.1621121302501449,0.9978257285566323,0.11642105912557534,0.8468353360408732,0.31584854496262765,0.9040105329372253,0.03924709343705966,0.7814550654497757,0.1738838602522234,0.019220620557425933,0.10567169353400617,0.04292200930976384,0.34230809181787675,0.9309082572509128,0.1857481839896708,0.9934029312975268,0.4909346268668721,0.9798300877943282,0.18386198383400865,0.6913086985398317
0.023203193684281795,0.7387542019648654,0.24267901234567912,0.945214335485123,0.42691014294129603,0.24796195837424698,0.10694076181005074,0.11394253376442293,0.6482758620689655,0.443530334903961,0.051914684819944976,0.5936099246788317,0.066485777676761,0.7676826834579965,0.16788443308391765,0.805404801680339,0.426062017319911,0.647343609333459,0.5136011470081681,0.4354087542192927,0.1738838602522234,0.06609562055742597,0.11719880838258985,0.1026073050232744,0.3703514676502528,0.7270324168681069,0.28727209942238807,0.6069303206275345,0.7288581292315678,0.9596601755886562,0.1918964694180805,0.823793709522902
0.0176275595470632,0.7068197330847875,0.47101234567901246,0.8913939386657065,0.28589141110328026,0.2716274822372226,0.03673284507381172,0.055563109190366784,0.19012617984404792,0.41054822670926694,0.3697744141549432,0.5518417543201959,0.07667083298043496,0.6850603686100213,0.30580627529227505,0.7817302106171766,0.33912528817676796,0.5374384112434377,0.04256374922047315,0.527870072682849,0.31823853536444235,0.1943210461092407,0.6121024229326784,0.0931833109632464,0.4049932848549526,0.25689275628165675,0.21680096323052706,0.8070357404526587,0.4661469687530767,0.8005419792994675,0.3117921147735093,0.44232297839807294
0.03285136097407232,0.6812721579807252,0.636567901234568,0.7103616948185775,0.3426158974332962,0.27951599019154777,0.17012788687266617,0.007549782241045265,0.23448275862068965,0.4609914510070344,0.5808383298565126,0.5782949288806651,0.0528871176986239,0.6502720255161369,0.3682485023617303,0.7955403887373546,0.33029484523887637,0.6621385398455772,0.3172934032798905,0.8453374309336874,0.14435467511221903,0.014012287224092595,0.13686385266934836,0.09946597366993173,0.4086909624983036,0.3229866123605756,0.10128027623751751,0.25509232064552656,0.35768358997850636,0.7597333597469723,0.2863124956059756,0.7139545482531817
0.06458096815878608,0.7302348550577825,0.2778765432098764,0.4876454136062298,0.2605906313784969,0.27951599019154777,0.23331501193528156,0.028740130332016636,0.4409083029145729,0.5094945512933493,0.4689870930925073,0.560195388391923,0.029404906859597752,0.6459234826294014,0.3281070706742233,0.7955403887373547,0.2984674616603579,0.8828749179199136,0.2027965022091456,0.2171271739566329,0.1738838602522234,0.058904379442574026,0.14341886743160118,0.1874232515635263,0.28704614532466516,0.7760597944374458,0.16549753241303358,0.25344305346990825,0.45688887104842896,0.4455103747398147,0.11344708100621714,0.521744493329701
0.045638269471453136,0.713203138321741,0.40823456790123464,0.21600149892168521,0.5335521772417262,0.9952668952274049,0.12800313683092254,0.10447560004971111,0.34874686949922024,0.22817656963272281,0.09162954424169924,0.3044057380318392,0.08263070148081657,0.5959152394319427,0.15050230713836005,0.5854774232804486,0.2597943470183713,0.6938419623715448,0.35882387711553854,0.20535936978854388,0.2602574387793009,0.1031752127759074,0.1311002952450565,0.9654453551132306,0.25610200576331643,0.7496222520058782,0.48295608571487675,0.2831298626310377,0.41750661049380067,0.8516185153505885,0.2900112811422099,0.8924431853164771
0.03361947887118279,0.5769528929724705,0.24267901234567907,0.028445570611596836,0.49236854134453817,0.22429643451127138,0.4926348471174326,0.6027281131699853,0.5029772684318145,0.6732230319740512,0.357135856328502,0.2320075760768704,0.0480775082496667,0.6328778539691947,0.4970223584578649,0.6525554312927418,0.294997092571044,0.6727063473542332,0.5080733873691455,0.26924173527245554,0.1987569967030179,0.15463728722409262,0.09911667877175333,0.2612445383670788,0.2041253343276856,0.4646163039582587,0.14351423011359407,0.28972693133351085,0.25667967467369496,0.8655339186288545,0.07231800830962375,0.8832899218773338
0.08489965209900299,0.6663694058366888,0.4526790123456791,0.17196662879670796,0.3059702204425096,0.122324605001778,0.005391904967931887,0.7885718137047696,0.42711519946629684,0.5529173573780927,0.5043750550065429,0.1270302412421656,0.08828906553841326,0.6390709404009504,0.30489242901338703,0.4966977067935898,0.26702010654247854,0.7877646503420106,0.30782393535057284,0.26251727574783323,0.2460611978083328,0.097345620557426,0.12047631576371627,0.25182054430705086,0.22146018855861657,0.24178558917790394,0.19982616861502972,0.28972693133351085,0.2391281362169549,0.8251940942175109,0.05529493838290492,0.8901548694566912
0.05909238711799595,0.5620501408284342,0.08601234567901245,0.18827583995410696,0.17278444418282488,0.07888507954325204,0.22536741272332814,0.8501068828503963,0.35814968222491783,0.659642163893883,0.25909043544204624,0.23339984842215825,0.16237646221311972,0.5277482425005205,0.029276412556115707,0.11043718102120843,0.17528812746975075,0.7941053348472041,0.2851601208305806,0.2995018031332558,0.6059664533628595,0.0286458333333333,0.09177020667153951,0.14030328126338637,0.2041253343276856,0.434401969750753,0.04927294618875618,0.2946747328603658,0.13992285514703226,0.6741027130707621,0.030344808299544265,0.9082240874504698
0.026441339320594795,0.6876590517567407,0.11545679012345686,0.20458505111150596,0.10664203430042991,0.2653166758737624,0.5281882622274865,0.21176751548311165,0.19310344827586204,0.7760496045810387,0.5231396962831333,0.23479212076744613,0.3231111739286755,0.7521330554560743,0.2911688626244957,0.2565978957613517,0.2597943470183713,0.9188054634493434,0.14876901083268415,0.31463183706365594,0.1987569967030179,0.1344252127759073,0.19744190020554583,0.17171659479681295,0.30460054984989615,0.5344869518131158,0.08877251620482761,0.28972693133351085,0.2020078306096227,0.6741027130707621,0.06481046579206594,0.9265306143287563
0.021600688270912414,0.7366252373728602,0.041666666666666706,0.18501399772262714,0.3494228357928981,0.6437022490729365,0.22606949189069045,0.21807880462625287,0.3073675591543926,0.6926242720885771,0.6242481588946637,0.2946598316148242,0.41843602205927444,0.8804150706147728,0.31461275946533257,0.6190164272865952,0.5615421635377237,0.961076693483967,0.08243589516441455,0.2726039650347667,0.18808010122319144,0.12661271277590735,0.0925616640095005,0.23454322186366622,0.7423246543864243,0.46272790807028963,0.028155969250717817,0.32436154202149514,0.4054056233564676,0.9031638465428609,0.029920198625142187,0.9150890350298273
0.017660694356637426,0.930354038167209,0.027876543209876474,0.20295412999576606,0.10925301949320684,0.26847207905549253,0.5488011805064239,0.21965662691203816,0.23746002705250396,0.8000891564371536,0.4157119547583823,0.2626375676732034,0.6125179092348406,0.4557798577250474,0.8159798557993085,0.7955403887373546,0.09933254828550835,0.9674173779891606,0.05479709696930211,0.30454514777672254,0.14435467511221903,0.03645833333333331,0.02045650162471934,0.22983122483365223,0.4796381528793653,0.4665046998462279,0.01681236848536421,0.32766007637273176,0.2391281362169549,0.9574190742324705,0.0457794109737439,0.9311072460483281
0.027209457217705253,0.8728719941830687,0.19454320987654303,0.2372034734263039,0.08622121922162415,0.23691804723819176,0.3655585178248395,0.25594653948510004,0.15517241379310356,0.7826280403340801,0.42203123367160295,0.2918752869242484,0.523040587244332,0.7870862624991325,0.5965182147773268,0.5973147188120298,0.47498546285521975,0.7572488074234802,0.08243589516441455,0.3163129519448115,0.12863836506779652,0.10515812055742602,0.013901486862466507,0.20155924265356828,0.3598624963431077,0.4551743245184132,0.03792934542340257,0.33095861072396837,0.19639333344599313,0.7951221863047931,0.029920198625142187,0.9105124033102555
0.0200644524766915,0.9452567903112454,0.283432098765432,0.2323107100790842,0.17732240308922614,0.23218494246559662,0.24735659528252943,0.9179532411391644,0.33746002705250405,0.8000891564371536,0.42203123367160295,0.2946598316148242,0.8821389565793224,0.8369296417474174,0.6136726727634408,0.5637757148058832,0.20241526823384415,0.7466809999148243,0.021630539135167184,0.31126960730134484,0.10170652269611387,0.097345620557426,0.012318572186544533,0.18271125453351228,0.5154892865842136,0.44762074096653676,0.052007330048761485,0.32930934354835006,0.15006126220525406,0.8018454903733504,0.01141863289099323,0.9336328707926222
0.017594424737488977,0.9942229759273649,0.3778765432098765,0.2241561045003847,0.11798693156643297,0.16749917724012992,0.5422298455747343,0.941620575425944,0.3822876132594004,0.8078496524829638,0.3588384445393968,0.3044057380318392,0.4762079190873366,0.7956184843234297,0.400957393735626,0.5420740063313176,0.33029484523887637,0.9061240944389566,0.057969199666756635,0.3213562965882782,0.2460611978083328,0.030258546109240662,0.026220059049011184,0.19056458291686895,0.6210922397985562,0.47216988751013517,0.023851360798043664,0.3408542137776781,0.14779930725795795,0.8287387066475794,0.01522484385465764,0.9196656667493989
0.032818226164498095,0.9942229759273649,0.4556543209876541,0.21437057780594537,0.07260734250242032,0.1043911136055283,0.4088348037758798,0.25121307262774417,0.25517241379310324,0.8796342409067099,0.3588384445393968,0.3002289209959756,0.6181576870525323,0.819700334149649,0.5381930576245387,0.7930988006159384,0.319176403379202,0.7213182618940501,0.07138037588636957,0.3179940668259671,0.1987569967030179,0.013020833333333287,0.13844676734527034,0.20155924265356828,0.6416984234584869,0.44950913685450583,0.06608531467412039,0.3474512824801513,0.2391281362169549,0.7749522740991213,0.026538597335879856,0.8990708240113264
0.03962887417131796,0.9878360821513492,0.5167654320987652,0.21926334115316506,0.2878183848169045,0.12490123428677385,0.047516655009675494,0.2591021840566707,0.19655172413793118,0.8835144889296153,0.2008564717088806,0.31693618913942995,0.45722410767409977,0.48285312437681865,0.5587784072078757,0.47302311573042743,0.179513334708377,0.7170911388905878,0.021630539135167184,0.32639964123174486,0.15145279559770303,0.045262287224092625,0.07945163448499483,0.19998857697689695,0.40488291308063634,0.4381787615266913,0.0872022916121586,0.34415274812891467,0.19639333344599313,0.8108098957980934,0.05529493838290492,0.8944941922917548
0.03365261368075701,0.9814491883753338,0.5000987654320986,0.2420962367735236,0.36791667715807946,0.2416511520107868,0.33862688703964056,0.23543484976989115,0.16159795808698685,0.9649996974106243,0.08215062587186826,0.35452754246220225,0.5463150497609593,0.6111351395355171,0.3015753713958859,0.5105078849137679,0.483061067643799,0.8680799874077954,0.04926933733027962,0.2137649441943217,0.18808010122319144,0.06088728722409264,0.0532315754359835,0.21883656509695293,0.6499464751738916,0.41551801087106194,0.12943624548823518,0.3210630076702585,0.3012131116795454,0.9193203511773126,0.03943572603430321,0.9130380280545497
0.019998182857543054,0.9878360821513492,0.24454320987654307,0.30080939694016,0.3267330412608917,0.5490401536210341,0.22887780856014,0.25279089491352946,0.4448275862068965,0.9669398214220768,0.25539546582564965,0.39768798516612597,0.38901252895977173,0.6673364691647313,0.30855098857005325,0.7911259180273416,0.23134232541400707,0.827922318874903,0.05030261271510463,0.25243058646089983,0.3904158729205518,0.019220620557425933,0.12375382314484269,0.2690978667504355,0.2664806052961452,0.4778350751740425,0.056311938501435635,0.2864283969822743,0.3192279708486928,0.8197743012228363,0.0039110903734353875,0.8652207038835553
0.02246821059674556,0.8707430295910636,0.0904567901234569,0.912595913170325,0.28850239629605723,0.7885879868240846,0.2321634760259849,0.05995724685984145,0.5857358891214696,0.9145564731128568,0.18145990254096817,0.426925704417171,0.49318301126012665,0.8282325559739462,0.22998357099365072,0.6052062491664173,0.33029484523887637,0.7487945614165554,0.19851884758388652,0.22048940371894404,0.33254250370489713,0.0035956205574259187,0.16898342500438723,0.9921466716166433,0.45694206503342116,0.5760316613484361,0.15071564855640682,0.28148059545541937,0.2391281362169549,0.7323713483315918,0.04260756850402356,0.8652207038835553
0.009581897670642063,0.8302927023429648,0.21379012345679022,0.8114788039944514,0.06092043949684096,0.2164079265569462,0.3667100537341363,0.02840080114413542,0.19357445570611706,0.3659253744458572,0.12502512475023284,0.4492020619417768,0.2919901716118937,0.7263715260340089,0.2701250026811577,0.6663656094129199,0.4707602556165935,0.94839532447358,0.04374157769125713,0.2810095394405445,0.3976217207755226,0.014012287224092595,0.05899513286027535,0.2329725561869949,0.6169542683122727,0.4948306381657645,0.04223395387607673,0.32766007637273176,0.17096534287832757,0.8220154025790223,0.013743802029568446,0.9313445549328365
0.015190666617434904,0.8345506315269751,0.12232098765432088,0.7217781426287567,0.12672084363965935,0.9021825013663675,0.1528285301140345,0.03820706404672845,0.4753910615352628,0.3445840103198786,0.07447089344446767,0.5457707593528418,0.3881823605910372,0.763169276622087,0.28933799562560547,0.6190164272865952,0.23471768738816134,0.9462817629718488,0.1563633212413568,0.34321079004330063,0.5358478217276381,0.014012287224092595,0.08600664924724767,0.16700459776679896,0.2317841988314536,0.3966340519913709,0.052007330048761485,0.6712517404766483,0.1556757593688836,0.9506957701639134,0.07665370835746121,0.8990708240113264
0.015190666617434904,0.4364412299001275,0.13934567901234582,0.7625511705222543,0.08395223976842364,0.14856675814974946,0.5141466788802388,0.033583849956502765,0.22116066260266842,0.9358978372388352,0.48522402280380944,0.5977867417146951,0.44221085668156346,0.726041798135661,0.386089138667289,0.8764285748698261,0.3824986456331797,0.7318860694027061,0.1541522173857478,0.36674639837947853,0.6668324171228623,0.014012287224092595,0.09911667877175333,0.14501527829340038,0.5138675674982949,0.41929480264700025,0.01681236848536421,0.9851565954194351,0.2645561267846206,0.9887944932190712,0.0829973932969019,0.8807642971330396
0.041632005938029674,0.6770142287967148,0.3921234567901235,0.767443933869474,0.04537958906401278,0.18327619314878035,0.46500113716487124,0.028740130332016636,0.08228761325940039,0.4648716990299395,0.5863324854153398,0.6270244609657403,0.10522698523139323,0.6394006682992981,0.2200339853617045,0.650582548704145,0.34625604058571546,0.7255453848975126,0.2027965022091457,0.37683308766641194,0.40482756863049335,0.034845620557425946,0.07945163448499483,0.13873261558671504,0.45365678997584036,0.4079644273191855,0.046538562328750886,0.9719624580144888,0.28998411735228624,0.9865533918628855,0.12486571389721034,0.8670344019743246
0.03368574849033123,0.8451989430260632,0.08,0.3040712391716398,0.07907227512244606,0.9132264125024228,0.3058817885990361,0.10763124462128172,0.10391928329232351,0.45905132699558177,0.23570910346312984,0.6117094651675739,0.05714947698172645,0.7133258973738023,0.13723566388891278,0.7560827369654174,0.28354612580831046,0.9420546399683865,0.25862687456327266,0.9747832767826664,0.22363013315381253,0.03744978722409262,0.07945163448499483,0.10574863637661706,0.2905788619337081,0.3928572602154326,0.10285050083018653,0.9604175877851606,0.1455373523106618,0.9619012769448421,0.16863713997935106,0.8212680847786079
0.025673221423484337,0.7089486976767927,0.1733333333333333,0.24046531565778373,0.06126244523641725,0.12490123428677385,0.5888196930460804,0.13129857890806126,0.06896551724137936,0.8738138688723521,0.09298999775587911,0.5323499414861658,0.07184263729157281,0.7586558697861776,0.30146153741616416,0.6120623079978464,0.5738429755649294,0.8596257414008706,0.5659703104929227,0.8789597285567988,0.1738838602522234,0.02963728722409261,0.16466682639428165,0.03663934660307851,0.5097435416405925,0.2814419028252552,0.30698127789789054,0.9373278473265046,0.16581416642710545,0.9484546688077277,0.289801522322668,0.7640601882839619
0.09691844269927334,0.7983582334628867,0.14434567901234577,0.8897630175499665,0.061604450975993555,0.12490123428677385,0.0987684342271302,0.18494453662476149,0.08228761325940039,0.26891917387322734,0.13134440366345349,0.3893343510943988,0.04698300791795741,0.6435843472368598,0.2907103522644946,0.8132963320347264,0.45883425327806115,0.7777906326370733,0.48802889958270573,0.7427894231831976,0.10170652269611387,0.02963728722409261,0.26954706259032696,0.00942399406002796,0.37725193983403055,0.3569777383440195,0.5878370711738005,0.9356785801508863,0.19639333344599313,0.7951221863047931,0.37671000599300525,0.7594835565643901
0.07448336691210201,0.9048064630631468,0.146567901234568,0.1295626797874706,0.06126244523641725,0.8406521393226309,0.8570139349785144,0.2591021840566707,0.46943652467163394,0.46875194705284484,0.08215062587186826,0.37262708295094443,0.06565560930802651,0.7108218980320866,0.18709742602836546,0.2577816253145098,0.36221723593255456,0.5184163577278571,0.2989795199281368,0.64891034412605,0.20585511718850197,0.014012287224092595,0.21710694449230433,0.018847988120055954,0.2354818764748046,0.3116562370327609,0.4569118141579628,0.891148366409192,0.39387725416102365,0.8130509971542792,0.20447895988719086,0.647356079434884
0.18425498772790463,0.8217803325140061,0.46676543209876525,0.19643044553280645,0.07907227512244606,0.5301077345306536,0.12800313683092254,0.2780360514860943,0.3793103448275863,0.668160723658377,0.5808383298565126,0.346173908390475,0.143138024417291,0.9804315570096901,0.3838029357495118,0.6332953109395927,0.32677697259198246,0.8744206719129889,0.2138520214871906,0.26419839062898887,0.48822043851386304,0.014633546109240649,0.10567169353400617,0.10888996772995974,0.3218250323065108,0.33431698768839024,0.15978512549782348,0.22705477866001544,0.3798683355593203,0.9372491620267986,0.016915644499288788,0.8212680847786079
0.1459011900615222,0.8324216669349699,0.344543209876543,0.20621597222724586,0.10630002856085374,0.11070191996898847,0.18416947021991403,0.9195310634249496,0.13793103448275854,0.6518816678480726,0.058233963733165625,0.40604161923785315,0.057696727147581096,0.582869610771736,0.09743732136112807,0.7343810284908519,0.20241526823384415,0.6799730137537205,0.4167208002393157,0.13307142989885437,0.1738838602522234,0.027654379442573995,0.44298304206655537,0.20941257103692493,0.22146018855861657,0.4986074299417027,0.12943624548823518,0.17097969468899324,0.10372919096451487,0.7458179564687064,0.12190363024703195,0.6249475386060424
0.03121572075112871,0.5301156719483562,0.10555555555555558,0.2290488678476044,0.2408538277788439,0.21798562814781122,0.24994018358101183,0.26541347319981184,0.3098738201559523,0.3232426461939001,0.058233963733165625,0.4297102491077468,0.16184779828717008,0.7241972545906411,0.04734630404167492,0.5775858929260612,0.25556913977974505,0.6896148393680825,0.4078763848168797,0.24066278229281085,0.2460611978083328,0.0556789538907593,0.027011516386972172,0.8413627666561956,0.12454558090261121,0.6268765192878861,0.6019150557991594,0.022100180153285225,0.1761165193295497,0.8991504389716408,0.058466780852625265,0.4990901663178211
0.03645699815415343,0.4257964069401015,0.1754567901234569,0.2404653156577837,0.27715749903005416,0.9495135490923187,0.06318712506261541,0.23543484976989115,0.4931034482758623,0.41830872275507736,0.05551305670480601,0.4018648022019895,0.12306941825272781,0.7328943403641122,0.03739671840972873,0.5992876014006266,0.14816098670565744,0.6917284008698137,0.24701857932132545,0.21544605907547731,0.11590276366708195,0.1233872872240927,0.5806383520738647,0.8884827369563354,0.2317841988314536,0.849707234068241,0.22947114939334998,0.16603189316213832,0.1761165193295497,0.7032370307011769,0.12507547271675237,0.5311265883548228
0.013621296013639744,0.6514666536926524,0.12787654320987643,0.268190974625362,0.14555669074441693,0.9495135490923187,0.014041583347247867,0.24332396119881763,0.4521951453612893,0.41830872275507724,0.03295684808028304,0.42274888738130745,0.24781775948282955,0.8566629486869012,0.06816090880501244,0.6801757875330979,0.4940369988307338,0.8517652851976646,0.1453078019633118,0.22889497812472184,0.15145279559770303,0.1259914538907593,0.10488023619604518,0.2596738726904075,0.17279668343772875,0.9497922161306036,0.42507392262077226,0.20891283972821414,0.6737229644550883,0.7413357537563349,0.26040826676403983,0.6867320668202599
0.02560695180433587,0.6706273350206993,0.10565432098765419,0.251881763467963,0.07714530140882173,0.2400734504199218,0.12755368008898835,0.2654134731998119,0.5448275862068964,0.47845256711010775,0.020318290253841746,0.5722239339133111,0.056602226815871806,0.7655084120146287,0.044144667624452676,0.6762300223559042,0.21519111583684847,0.9526224474770423,0.06018030352236563,0.23898166741165525,0.1809819807377074,0.014012287224092595,0.1318917525830175,0.17485792615015563,0.44292037711723314,0.8213812957487044,0.4813858611222076,0.16768116033775662,0.32936637790691453,0.834158499642254,0.002432594566005296,0.8377609135661253
0.015591292970777238,0.8366830846580425,0.050098765432098714,0.2747146590883216,0.14782567019761772,0.1816984915579153,0.07652662924250088,0.26383565091402655,0.41332209601802133,0.5424766594880435,0.07087252155960692,0.6882844441584063,0.056602226815871806,0.8849284774506821,0.007777216693890747,0.9336421699391351,0.34625604058571546,0.6790470318594267,0.05479709696930211,0.24402501205512195,0.1738838602522234,0.006199787224092588,0.07131370504682003,0.14815660964674301,0.37380170374214167,0.7326266890141563,0.38283996874469556,0.20726357255259584,0.19974587566232666,0.7256480442630345,0.2635801092337602,0.8240310184074103
0.05525330195166943,0.9516436840872611,0.08898765432098764,0.2714528168568418,0.18344532996967533,0.22271873292040636,0.15608630352541827,0.22439009376939406,0.4211606626026684,0.5191951713506123,0.018957836739661938,0.4478097895964889,0.11373311755769329,0.7415914261375832,0.0784535835966809,0.6821486701216948,0.23471768738816134,0.647343609333459,0.1266579722765943,0.2591550459855221,0.1738838602522234,0.02703312055742594,0.513777201498886,0.24710854727703685,0.5847729209936131,0.7855017738772914,0.34764500718129826,0.20891283972821417,0.47253247804079845,0.7659878686743783,0.47397814438598956,0.7279217522964051
0.024405072744308833,0.6748852642047096,0.11676543209876544,0.2306797889633443,0.1591705674636209,0.23691804723819176,0.05616633338899147,0.2780360514860943,0.24874686949922017,0.4609914510070344,0.02391666213870278,0.4380638831794739,0.12223924988399336,0.7850768550049385,0.06129912561056679,0.6624198442357263,0.33912528817676796,0.7276589463992438,0.18193556866681906,0.2373005525304997,0.2735316770274491,0.10255395389075934,0.4246290007322475,0.9371733729331467,0.27340896873708515,0.8346000669644881,0.36876198411933664,0.24519671759181674,0.7714289861583071,0.9731067837257709,0.5437586787198371,0.7668231219127642
0.039662008980892186,0.6578535474686681,0.07787654320987651,0.2502508423522231,0.44506197856690116,0.2400734504199218,0.10508714673339176,0.6469071371719736,0.35909169708542715,0.5133747993162545,0.007679732427400453,0.4311025214530346,0.19579798263275014,0.7850768550049385,0.016697534846670088,0.6407181357611608,0.26702010654247854,0.7361131924061685,0.2980185210862913,0.22721386324356632,0.07927545804159356,0.128595620557426,0.29576712163933816,0.9560213610532027,0.498594726196215,0.798720545093075,0.3758009764320161,0.21221137407945076,0.5808734936886469,0.8829939343371891,0.5469305211895574,0.7256334364366192
0.02246821059674556,0.6961749101247615,0.12787654320987643,0.2469890001207433,0.35361878895972304,0.24322885360165186,0.03347507166242762,0.27488040691452365,0.2547014063628486,0.4900933111788234,0.007679732427400453,0.44502524490591316,0.0673159460454955,0.7568113262411577,0.044144667624452676,0.6703113745901136,0.3984598409800188,0.7234318233957814,0.32012955964238127,0.25074947157974425,0.18808010122319144,0.11036645389075923,0.40064735783538347,0.1874232515635263,0.37035146765025273,0.7760597944374457,0.1857481839896708,0.2583908549967631,0.49065663443942775,0.6785849157831335,0.25829285644500655,0.8738993495536821
0.03482135793120981,0.7344962727808552,0.12787654320987643,0.268190974625362,0.39934038376331216,0.28740449814587304,0.043753636747435654,0.2338570274841059,0.7310344827586204,0.4706920710642974,0.04287449887836472,0.4505943342870647,0.10522698523139323,0.7742054977880998,0.05786823401334396,0.6663656094129199,0.22664208259958205,0.7297725079009749,0.4141014735057633,0.255792816223211,0.07927545804159356,0.09994978722409262,0.30860523944037244,0.21098323671359628,0.34230809181787675,0.8855867559396542,0.15055322242627353,0.25509232064552656,0.7139772178197905,0.6920315239202482,0.0691461658399034,0.7164801729974758
0.06738535263218248,0.7302383435968447,0.11676543209876532,0.2616672901624024,0.6848897891270161,0.27793828860068276,0.022691261726563848,0.2575243617708854,0.786206896551724,0.48621306315591817,0.04287449887836472,0.6882844441584063,0.12872778231032445,0.7655084120146287,0.044144667624452676,0.8108547439133102,0.10740815307408765,0.6684792243507708,0.4417402717008757,0.3079073775390337,0.137256554626735,0.033854166666666644,0.4596424906956588,0.10731930205328839,0.25982757466382966,0.8553724217321483,0.14790005163133496,0.24519671759181674,0.7172204628066422,0.7794344768114928,0.15848724407624595,0.7508049108942634
0.23877330659203783,0.6535956182846576,0.011666666666666678,0.27308373797258173,0.3380779385268949,0.27636058700981775,0.005391904967931887,0.24647960577038824,0.527115199466297,0.4609914510070344,0.00495882539904084,0.6841076271225426,0.06565560930802651,0.7372428832508476,0.013266643249447263,0.9296964047619414,0.10740815307408765,0.6494571708351902,0.2924907614472688,0.6573159185318279,0.2602574387793009,0.1734877127759074,0.20399691496779865,0.14658594397007169,0.2041253343276856,0.849707234068241,0.28375260326604834,0.26993572522609127,0.26455612678462054,0.8152920985104649,0.27203920449223407,0.7622464901931926
0.07808900409218311,0.6429507953246316,0.06101234567901243,0.2665600535096221,0.3270750470004678,0.25742816791943723,0.11351209674174047,0.23070138291253528,0.4487468694992203,0.42800934281234027,0.0139990113406211,0.6771462653961033,0.04698300791795741,0.7568113262411577,0.023673152020837442,0.9237777569961506,0.32236175112303667,0.6325486788213407,0.060324856608324595,0.9058575666552879,0.18808010122319144,0.19171687944257404,0.151556796869776,0.1685752634434703,0.173209086023499,0.45139753274247496,0.12239725317555572,0.29302546568474747,0.14779930725795795,0.861051715916483,0.1226454241684061,0.8926804942009855
0.2503583360293916,0.6748852642047096,0.0993456790123458,0.31548768698181906,0.3270750470004678,0.26531667587376245,0.09174764255350627,0.20387840405418514,0.7310344827586204,0.44935070693831874,0.04559540590672433,0.649300818490346,0.04753025808381205,0.772031226344732,0.06427150684778847,0.8941845181671976,0.21181575386269422,0.7001826468767385,0.1321857319156167,0.9243498303479991,0.40482756863049335,0.089533120557426,0.07945163448499483,0.04550646828683211,0.24909116180522242,0.39096886432746353,0.011343600765353611,0.2897269313335109,0.15793771431617976,0.8408818037108111,0.3231058682547316,0.8286076501269819
0.30531041605644144,0.734496272780855,0.15767901234567913,0.3415824248336574,0.26773957547767513,0.27793828860068276,0.040495863336051555,0.1786332474816203,0.19357445570611706,0.453230954961224,0.006319278913220647,0.640947184418619,0.08598854743556451,0.7502885119110543,0.08211214315334714,0.8803743400470198,0.34269066438124174,0.8638528644043328,0.06585261624734709,0.8335696267655985,0.28978662391930526,0.019220620557425933,0.33509721021285505,0.04032327155381671,0.3703514676502528,0.41551801087106194,0.12239725317555572,0.9851565954194351,0.2256371869423997,0.8520873104917399,0.309149761387962,0.7462282791746917
0.05525330195166943,0.8707465181301256,0.20656790123456806,0.3448442670651372,0.4375710287281465,0.27004978064635754,0.007020791673623934,0.16285502462376727,0.08322962811990971,0.4551710789726766,0.07719180047282756,0.6312012780016039,0.3143221233994956,0.7307200689207444,0.10681456265335147,0.8665641619268418,0.179513334708377,0.80467314235586,0.08947742960918476,0.823482937478665,0.18808010122319144,0.136408120557426,0.2892121068770855,0.028786018219721845,0.470551350363839,0.7459163757477979,0.33356702255593934,0.9967014656487633,0.2594049503333984,0.9013915403278268,0.1927431427492256,0.7347866998757626
0.028010709924389966,0.7387542019648655,0.24934567901234575,0.9484761777166029,0.31346117028126425,0.2448065551925169,0.050774428421059586,0.14392115719434367,0.10391928329232351,0.4512908309497714,0.07719180047282756,0.6033558310958467,0.4023282707350289,0.7415914261375832,0.15004379677835897,0.8369709230978888,0.9234190464092706,0.8723071104112577,0.19616319064231869,0.6671392535311971,0.10170652269611387,0.019220620557425933,0.20399691496779865,0.0460633406631065,0.45365678997584036,0.9195778819230981,0.16463120705163245,0.9637161221363972,0.3659687141870986,0.7615056659620066,0.22509593594037305,0.7370750157355485
0.036023236991236836,0.7536569541089019,0.376567901234568,0.8995485442444058,0.3059702204425096,0.26847207905549253,0.09289917846280288,0.0839639103345022,0.1310344827586206,0.424129094789435,0.1612382100186621,0.5685490224636501,0.49318301126012665,0.7198487117039056,0.254685990493655,0.775811562851386,0.23134232541400707,0.611413063804029,0.5909897819544828,0.0853053931632542,0.14435467511221903,0.12239583333333338,0.31974876453620227,0.12930862152668704,0.6788286018063893,0.7364743963079524,0.2929032932725316,0.8268269465600785,0.3475451829202845,0.8314486031449166,0.17064512487095423,0.8514908087248403
0.048475788754423786,0.7387542019648655,0.4887901234567903,0.8196334095731507,0.21135709488723547,0.9952668952274049,0.12800313683092254,0.006311289143141177,0.2098738201559522,0.4047278546749091,0.40263466450369056,0.540703575557893,0.6173461049237027,0.6676661970630791,0.3531525793339499,0.7600285021426112,0.4144210363268579,0.5268706037347818,0.33442945816086017,0.5211456131582267,0.10880464318159791,0.07552083333333334,0.6619205351257997,0.11046063340663106,0.3218250323065108,0.36453132189589604,0.28727209942238807,0.5013772213879633,0.14779930725795795,0.6907280128463652,0.4419548055951526,0.5832832353608807
0.027643218380621826,0.689788016348746,0.5021234567901236,0.7152544581657971,0.2745465138372771,0.99684459681827,0.2192734285880337,0.009127604526830568,0.24137931034482757,0.4706920710642974,0.6421353353147528,0.5727258394995137,0.5126663698581642,0.5611268963380583,0.42074114379923944,0.8113234494461294,0.23134232541400707,0.6911346110660951,0.27590748253020136,0.2104027144320106,0.11590276366708195,0.08333333333333336,0.2981172158207679,0.15129794100008567,0.5159016891699838,0.3286518000244829,0.05904632236144094,0.26168938934799973,0.2594049503333984,0.6965137266326197,0.17751829889456797,0.5837578531298971
0.03164948191404529,0.7259734373347101,0.10166666666666663,0.18990676106984686,0.13806574090566268,0.9936891936365398,0.11396155348367484,0.07449697661979039,0.3384020419130134,0.3504043823542364,0.21432015288971554,0.5151407677565089,0.29366909458926765,0.6415749397426659,0.06724547530556729,0.7635055617869856,0.24279329217674067,0.7729697198298923,0.1978937950770048,0.23561943764934415,0.137256554626735,0.1943210461092407,0.20241400029187667,0.5999942884884484,0.5794256330071812,0.8062741286449516,0.34710353408016337,0.24849525194305333,0.1862549263877714,0.41704838751625556,0.2553333188124873,0.7324983840159767
0.032050108267387634,0.5343736011323666,0.45767901234567915,0.09857517858841248,0.10664203430042991,0.6342360395277462,0.2890318885823387,0.18494453662476154,0.269436524671634,0.3562247543885942,0.04559540590672433,0.23479212076744613,0.613348077603575,0.6263550396390913,0.3151851038050555,0.5835045406918518,0.2984674616603579,0.6262079943161473,0.2924907614472688,0.20031602514507718,0.14435467511221903,0.1822916666666666,0.05899513286027535,0.23611388754033752,0.6623324983755798,0.7703946067735384,0.4970340703402356,0.26993572522609127,0.22337523199510365,0.9551779728762848,0.1726531097625574,0.8922058764319688
0.03846012992086516,0.5663080700124445,0.38379012345679026,0.11977715309303116,0.10403104910765297,0.11517221613314794,0.005391904967931887,0.9258423525680909,0.2689655172413791,0.6377007766785712,0.6699401625329237,0.1572425511349122,0.12356478250057604,0.7283809335282028,0.44898987609674545,0.5677214799830769,0.34269066438124174,0.6684792243507707,0.3422405981984712,0.26924173527245554,0.11590276366708195,0.097345620557426,0.15811181163202884,0.626695604991861,0.7188177069975209,0.3683081136718342,0.0844679077521533,0.29962253438722064,0.2645561267846206,0.9574190742324705,0.05001023161181035,0.869797335603127
0.02560695180433587,0.8409410138420529,0.35490123456790135,0.18990676106984686,0.07975628660159867,0.09708137954793734,0.3648564386574771,0.7554375457032783,0.3172413793103449,0.7729274202768172,0.387468395111961,0.19580849509938597,0.27556232960495836,0.531227076809909,0.0999527794589058,0.13191171616203007,0.15153634867981167,0.8067867038575911,0.3481765807154369,0.26756062039129996,0.22363013315381253,0.025050212775907327,0.19979199438697554,0.2706685324271068,0.39097159693876454,0.3437589671282358,0.19278717630235026,0.29137619850912916,0.2955986145159158,0.7615056659620066,0.05212309591318458,0.9128007191700414
0.031248855560702945,0.5726949637884601,0.14434567901234577,0.18827583995410696,0.15236362910401913,0.1659214756492649,0.4158555954495037,0.5822164234547762,0.35814968222491783,0.9455984572960981,0.283007097580749,0.24871484422032475,0.9689948448634311,0.6934277264851445,0.17497547145836384,0.061159360246502724,0.179513334708377,0.8300358803766341,0.11276629663605868,0.3079073775390337,0.4521317697358084,0.0693210461092407,0.09911667877175333,0.15443927235342833,0.40488291308063634,0.5099378052695174,0.10285050083018653,0.27488352675294614,0.2594049503333984,0.7099603347697343,0.0037013315538934324,0.9356838777678999
0.021600688270912414,0.853714801394084,0.04101234567901248,0.18501399772262714,0.08134125457564659,0.9873783872730797,0.21225263691440976,0.22596791605517938,0.3896551724137928,0.5211352953620648,0.5673746486756778,0.2890907422336727,0.9398542699668084,0.9152034137086571,0.015552846167224452,0.7437767359010169,0.2071155110482692,0.9420546399683867,0.19299108794486405,0.2843717692028557,0.3617485067364413,0.10838354610924074,0.16466682639428165,0.19684724562355427,0.5056195157828902,0.4419555533026295,0.0633509308141151,0.32766007637273176,0.1862549263877714,0.8040865917295362,0.04895125344346424,0.9242422984689704
0.021600688270912414,0.853714801394084,0.022320987654320914,0.18501399772262714,0.07521832769519739,0.27320518382808767,0.3852167345109865,0.24332396119881766,0.2202186477421591,0.8330712646318478,0.5547360908492366,0.2584607506373398,0.5850748435554967,0.5347059111192974,0.015552846167224452,0.7812615050843572,0.36221723593255456,0.9653038164874295,0.06585261624734709,0.2726039650347667,0.548966789003739,0.09275854610924072,0.0532315754359835,0.23140189051032356,0.30451806933274206,0.45139753274247496,0.052007330048761485,0.3359064122508233,0.1556757593688836,0.9462135674515417,0.05529493838290492,0.9288189301885422
0.00964816728979051,0.8899037109191104,0.14454320987654312,0.2372034734263039,0.06126244523641725,0.1895869995122405,0.4954431637868822,0.24490178348460298,0.19012617984404792,0.7709872962653646,0.5041818595434714,0.28352165285252123,0.5211539159445592,0.7999670272101652,0.35921435022922915,0.6308537228181764,0.2232667206254278,0.9589631319822357,0.08796365480343703,0.3179940668259671,0.5424073053656885,0.0634914538907593,0.05978659019823634,0.23454322186366622,0.304435588815588,0.4797234710620116,0.10128027623751736,0.34250348095329636,0.1455373523106618,0.9193203511773126,0.04895125344346424,0.8990708240113264
0.015591292970777238,0.8941616401031206,0.32787654320987647,0.2339416311948241,0.06841138933559547,0.20220861223916084,0.16779692099961188,0.9794883102847911,0.22805721432680637,0.7903885363798905,0.42203123367160295,0.30858255506770277,0.7508463242031744,0.8630208990678305,0.7097376374856796,0.5854774232804486,0.2822212449680396,0.742453876911362,0.15429677047170665,0.32303741146943377,0.3904158729205518,0.15984562055742596,0.06634160496048917,0.20470057400691094,0.25982757466382966,0.4060760314312164,0.16463120705163245,0.32930934354835006,0.11403154386695917,0.8040865917295362,0.061638623322345605,0.8647460861145387
0.017660694356637426,0.8579727305780943,0.3778765432098765,0.22252518338464483,0.09075917812802556,0.208519418602621,0.577333803942854,0.9652879097127233,0.17194278567319354,0.8156101485287742,0.49786258063025074,0.30719028272241494,0.2568711419749843,0.7325646124657643,0.5244694912356475,0.5618028322172862,0.5182638131964717,0.9209190249510747,0.057969199666756635,0.329761870994056,0.49710794649651824,0.10255395389075934,0.000791457337960842,0.17485792615015563,0.5258132968570506,0.40985282320715466,0.14351423011359407,0.35239908400700615,0.08345237684807129,0.7883988822362358,0.020404671215981163,0.8761876654134679
0.017660694356637426,0.9644174716392921,0.4112098765432098,0.20458505111150596,0.05706649206959227,0.15329986292234457,0.584354595616478,0.9857995994279323,0.08275862068965505,0.8388916366662054,0.42203123367160295,0.30579801037712706,0.0480775082496667,0.7999670272101652,0.47986790047175076,0.7792886224957605,0.526339417985051,0.9145783404458812,0.09832184503162067,0.3398485602809895,0.38672937055672263,0.013020833333333287,0.04012154591147784,0.1842819202101836,0.8305788077412549,0.468393095734197,0.03792934542340257,0.66960247330103,0.20762232777325226,0.824256503935208,0.02019491239643921,0.9128007191700414
0.015591292970777238,0.9644174716392921,0.5000987654320986,0.20458505111150596,0.052528533163191,0.05706006587957712,0.1069407618100509,0.2796138737718796,0.055643421223358344,0.8253107685860371,0.23877214518820447,0.2876984698883848,0.0673159460454955,0.6285293110824594,0.6136726727634408,0.6387452531725639,0.37489807642039924,0.7297725079009749,0.05479709696930211,0.27428507991592227,0.2602574387793009,0.02442895389075927,0.01311002952450552,0.21883656509695293,0.34230809181787675,0.45328592863044415,0.044968337736082026,0.6663039389497933,0.19639333344599313,0.946213567451542,0.026748356155421846,0.9128007191700415
0.04724077488482252,0.745141095740881,0.5612098765432098,0.21110873557446555,0.113790978399608,0.0838809929242828,0.14906551185179434,0.25436871719931475,0.05470140636284902,0.9203768451472144,0.11238656692379155,0.32807436790173283,0.08598854743556451,0.5002472959237608,0.42497363491618567,0.44737564207866826,0.2984674616603579,0.9462817629718488,0.02715829877418967,0.27932842455938894,0.35259168033006927,0.019220620557425933,0.11064379362033702,0.2329725561869949,0.1352819937612185,0.42684838619887666,0.04927294618875618,0.32766007637273176,0.28772216240499016,0.8897172384057463,0.03827441447384509,0.9379721936276856
0.2195101068220311,0.8686175535381204,0.3389876543209876,0.2453580790050034,0.06092043949684096,0.5316854361215186,0.24735659528252943,0.2322792051983206,0.1275862068965518,0.9941015575824131,0.3697744141549432,0.4116107086190045,0.04217339846900025,0.7501236479618805,0.5243540700353686,0.6328266054067733,0.4339951114357507,0.91246477894415,0.021630539135167184,0.26756062039129996,0.22363013315381253,0.011408120557425926,0.09097874933357852,0.23768455321700885,0.2317841988314536,0.4778350751740425,0.056311938501435635,0.31611520614340366,0.2697073032358428,0.7861577808800501,0.008881158915216956,0.9356838777678999
0.06317184809632787,0.9452567903112454,0.09555555555555557,0.6246427873283814,0.08883220441440122,0.6855640729405974,0.38802505118043606,0.11552035605020823,0.28965517241379296,0.9009756050326886,0.209264729759139,0.3962957128208381,0.0939288433561049,0.6608136548346281,0.32399000075755596,0.650582548704145,0.32236175112303667,0.9547360089787734,0.038069264966275676,0.3095884924201892,0.2602574387793009,0.03807104610924067,0.05978659019823634,0.20941257103692493,0.19010364641149757,0.41551801087106194,0.05904632236144094,0.34910054965576964,0.16581416642710545,0.7928810849486073,0.007507542517557843,0.8716110336938963
0.11562477183813429,0.8409375253029907,0.2176790123456791,0.83104985738333,0.1520216233644428,0.5001314043042178,0.5141466788802388,0.15128939247608628,0.1275862068965518,0.46875194705284484,0.09478918369830956,0.6687926313243763,0.09560776633347884,0.763169276622087,0.4125070039659047,0.8009903309703258,0.2593193114425726,0.7572488074234801,0.12098565955161286,0.37515197278525636,0.40482756863049335,0.04067521277590734,0.17777685591878734,0.1544392723534283,0.25610200576331643,0.364531321895896,0.20686516092770918,0.6729010076522665,0.20762232777325226,0.9188515560361612,0.029393255558628165,0.8372862957971088
0.05525330195166943,0.7728106583588245,0.04277777777777782,0.6581722191149008,0.2605906313784969,0.23060724087473156,0.4439387621439994,0.053985286904581486,0.3379310344827587,0.2941407860221111,0.24509142410142512,0.44363297256062534,0.07414315539442154,0.7501236479618805,0.2409624241047637,0.5756130103374643,0.2071155110482692,0.9462817629718488,0.1453078019633118,0.684213756630317,0.11590276366708195,0.04848771277590735,0.151556796869776,0.1418739469400577,0.5451962183882516,0.364531321895896,0.1716701993643119,0.9851565954194351,0.43505814895054074,0.9910355945752569,0.03827441447384509,0.8327096640775371
0.014455683529898658,0.4981812030682783,0.050098765432098714,0.7380873537861558,0.28850239629605723,0.586904991801795,0.14440358010568577,0.03105933429924628,0.5098738201559524,0.9029157290441411,0.3461998867129553,0.6381626397280433,0.13921434205678326,0.643419483287686,0.4138793606047938,0.6624198442357262,0.1710629202311245,0.7445674384130931,0.1541522173857478,0.968058817258044,0.11590276366708195,0.035466879442574005,0.16466682639428165,0.12459662449667305,0.2495035643909926,0.39852244787934,0.07312430698679985,0.9637161221363972,0.33179227869843325,0.8377031120723225,0.09695350016367141,0.8464395592362522
0.017594424737488977,0.6621114766526783,0.10601234567901247,0.7429801171333756,0.16075553543766907,0.13594514542282915,0.4930843038593668,0.08869737719185812,0.7793103448275861,0.5657581476254746,0.5736939275888985,0.6715771760149518,0.10041737578243604,0.7392522907450416,0.27424207259782507,0.6111248969322078,0.1791385250197038,0.7149775773888567,0.13425228268526684,0.979826621426133,0.1738838602522234,0.0556789538907593,0.22366195925455715,0.10574863637661706,0.24580588674764167,0.4079644273191855,0.10128027623751736,0.9472234503802144,0.4661469687530767,0.9529368715200991,0.061428864502803576,0.8121148213394646
0.029646350147333557,0.8153899501989283,0.32787654320987636,0.18324799021144209,0.10698404004000608,0.9084933077298276,0.7130877056692239,0.145498979480129,0.31034482758620696,0.5502371555338539,0.031596394566103234,0.5393113032126051,0.19066828250110307,0.42632206684925666,0.24050550096531972,0.7580556195540142,0.23941793020258642,0.8433110391907397,0.34320159704031666,0.9882321958319109,0.1809819807377074,0.06609562055742597,0.15811181163202884,0.0931833109632464,0.3495384860702707,0.36264292600792686,0.12459016393442635,0.9571190534339241,0.1761165193295497,0.9327669593144272,0.25300814967391205,0.8349979799373229
0.04579159218703008,0.9026774984711416,0.6749012345679012,0.533311204846947,0.05411350113723904,0.07914788815168768,0.41610821787493174,0.07449697661979039,0.24185031777508223,0.7488878684207024,0.09342873018412975,0.46641123567143367,0.07497332376315603,0.3589196521048559,0.48289799230911196,0.6870318463645272,0.22664208259958205,0.8997834099337628,0.5820008134460879,0.8604674648640875,0.200815702623906,0.05047062055742596,0.14997388219385402,0.04763400633977784,0.37725193983403055,0.3569777383440195,0.6870868627825807,0.9026932366385202,0.49857941862159416,0.912128251967604,0.4036706669856282,0.8235564006383936
0.014455683529898658,0.6876555632176786,0.16120987654320967,0.26982189574110194,0.08656322496120059,0.24007345041992176,0.39645000118878476,0.22912356062675,0.3384020419130134,0.2708592978846799,0.050554231305765175,0.42135661503601957,0.13351880551937664,0.5925415315128801,0.38334442538951075,0.607179131755014,0.1909643014711106,0.5902774487867172,0.5703925182041406,0.7915417547367093,0.18808010122319144,0.06869978722409265,0.07945163448499483,0.01150869577633719,0.3184572767317761,0.41929480264700025,0.8855864460001411,0.9356785801508863,0.7139772178197905,0.8986816438304894,0.40018164026893577,0.7823667151622486
0.017660694356637426,0.549276353276403,0.12434567901234575,0.18827583995410696,0.18798328887607663,0.8374967361409008,0.37889802200472494,0.21650098234046755,0.5246089384647372,0.6887440240656718,0.09668496737227589,0.3781961723320959,0.27556232960495836,0.5521000826662396,0.1911006619653111,0.48880617643920243,0.21181575386269422,0.719204700392319,0.18289656750866473,0.26083616086667766,0.2460611978083328,0.11817895389075936,0.027011516386972172,0.06648199445983378,0.2664806052961452,0.3380937794643285,0.5364524272912405,0.6201244580324808,0.7736909411056032,0.9663834796572137,0.2695017305164578,0.7320237662469603
0.03608950661038532,0.8196478793829388,0.39454320987654323,0.18664491883836706,0.2605906313784969,0.08545869451514784,0.20523184524078583,0.9416205754259438,0.4098738201559522,0.8291910166089423,0.41337743865616566,0.3809807170226716,0.11375170379759829,0.7195189838055578,0.18732668120836596,0.74819120661103,0.1872141298082831,0.8342630033800964,0.29455731221691883,0.13307142989885434,0.1738838602522234,0.045262287224092625,0.08521519190928668,0.1308792872033584,0.3148966688655709,0.3192098205846374,0.1857481839896708,0.18747236644517626,0.6676451465790513,0.7256480442630345,0.09335704801954894,0.8784759812732539
0.01806132070997977,0.7834589698579125,0.3445432098765432,0.20621597222724586,0.17051546472962423,0.0838809929242828,0.45095955381762337,0.9668657319985087,0.4172413793103448,0.313542026136637,0.18189863496921865,0.407433891583141,0.08430962445819054,0.37413955220843026,0.12145356254168779,0.5302367107997366,0.3472008929653473,0.7983324578506664,0.4344096310841877,0.1717370721654325,0.11590276366708195,0.03807104610924067,0.36314781782880656,0.22668989348030957,0.45365678997584036,0.6967471671427432,0.21680096323052697,0.07202366415189523,0.7000775964475687,0.7234069429068488,0.318557863369693,0.6455423813441148
0.028043844733964183,0.4726336279642159,0.12555555555555561,0.21763242003742514,0.38992246021093324,0.9148041140932878,0.40206663452768393,0.23701267205567647,0.379781352257841,0.4765124430986552,0.12196208302515833,0.3823729893679595,0.08263070148081657,0.4785045814900831,0.2191201390828165,0.6249350750523858,0.2071155110482692,0.6388893633265343,0.1652077366637927,0.2574739311043665,0.2094338921828444,0.027654379442573995,0.3100521982545586,0.8554987577462375,0.26315408997998746,0.675974812375083,0.530821233441097,0.1033597404886429,0.5621006882926475,0.773179967884087,0.19168416458087947,0.4762070077199627
0.07383543692099426,0.6834011225727304,0.12499999999999992,0.2469890001207433,0.4424509933741243,0.958979758637509,0.03510395836811967,0.26225782862824126,0.6172413793103447,0.9164965971243093,0.19915388349798596,0.4116107086190045,0.0673159460454955,0.69593172582686,0.07159180040223526,0.9099675788759726,0.21989135865127352,0.8596257414008706,0.2564157707076637,0.2641983906289888,0.31617982944355427,0.09474145389075933,0.14748783215068859,0.9261787131964473,0.34230809181787675,0.7175904374282613,0.2146892655367232,0.16273335881090173,0.6856600057481987,0.6763438144269478,0.24243364409640486,0.5471447993733238
0.09145606864229744,0.7068197330847875,0.12787654320987643,0.2649291323938822,0.6447321704485572,0.2653166758737624,0.09289917846280303,0.23070138291253528,0.6655172413793103,0.4163685987436247,0.031596394566103234,0.6757539930508155,0.0673159460454955,0.7912699414366942,0.03510892827139451,0.6565011964699357,0.23134232541400707,0.8200618626716969,0.07123582280041055,0.24066278229281085,0.1738838602522234,0.08692895389075933,0.30887715116384384,0.20627123968358227,0.6540565554030129,0.5533709106928069,0.5447367919363227,0.26168938934799973,0.47253247804079845,0.8381719072134739,0.4866655142648709,0.7622464901931926
0.05107293222538904,0.9644174716392921,0.038987654320987594,0.2942857124772004,0.4080742958365383,0.1816984915579153,0.019433488315179756,0.24016831662724705,0.5788393373973316,0.4357698388581506,0.02391666213870278,0.6660080866338004,0.0480775082496667,0.9804315570096901,0.03465200513195051,0.8685370445154386,0.2441181730170115,0.6557978553403837,0.04698595693169114,0.24906835669858868,0.18808010122319144,0.030258546109240662,0.19744190020554583,0.11360196475997372,0.12454558090261121,0.7212963136863416,0.3265280302432599,0.16603189316213832,0.4647106745446137,0.7624432562443096,0.002432594566005296,0.9219539826091847
0.05400443243054816,0.67914319338872,0.019444444444444462,0.2893929491299807,0.19025226832927725,0.2258741361021364,0.007020791673623934,0.2322792051983206,0.4719427856731938,0.4706920710642974,0.030235941051923426,0.6882844441584063,0.07950001500923334,0.7524627833544221,0.054437342416121144,0.7871801528501479,0.23134232541400707,0.7001826468767385,0.08243589516441455,0.26756062039129996,0.10880464318159791,0.07452937944257404,0.26337563758082794,0.13716194991004368,0.27676337531040524,0.7703946067735384,0.47434686880952814,0.2254055114843971,0.2618308511249171,0.6853082198516909,0.2857830065218025,0.8286076501269819
0.12511160388528103,0.853714801394084,0.038987654320987594,0.2796074224355413,0.15917056746362104,0.9668682665918341,0.05616633338899147,0.22123444919782345,0.7822876132594005,0.4881531871673707,0.039276126993503684,0.5680471168774476,0.10041737578243604,0.6285293110824592,0.044144667624452676,0.6782029049445011,0.13876050107680726,0.7044097698802008,0.1708800493887741,0.2423438971739664,0.200815702623906,0.1031752127759074,0.646188499696393,0.5905702944284205,0.294111578542751,0.798720545093075,0.41803493030809263,0.2237562443087788,0.1612902565325131,0.694272625276434,0.496181041674032,0.74165164745512
0.22999266162808046,0.700432839308772,0.10565432098765432,0.2502508423522231,0.12445186418645884,0.28267139337327785,0.13597863009733707,0.28592516291502074,0.19655172413793118,0.5366562874536857,0.012638557826441294,0.4352793384888982,0.1621121302501449,0.7089773544870667,0.047575559221675494,0.664392726824323,0.25086889696531994,0.755135245921749,0.28696300180824635,0.22385163348125517,0.33254250370489713,0.12078312055742597,0.32250672630283916,0.8979067310163634,0.20785090322819882,0.8232696916366735,0.34764500718129826,0.2188084427819239,0.10888036741573702,0.9663834796572137,0.496181041674032,0.7370750157355483
0.06326582901851635,0.6748852642047096,0.04454320987654316,0.268190974625362,0.2651285902848982,0.2716274822372226,0.05616633338899147,0.26383565091402655,0.5177123867405993,0.48233281513301296,0.037915673479323876,0.4464175172512011,0.12872778231032445,0.7807283121182031,0.0647300172077896,0.6722842571787105,0.23134232541400707,0.7509081229182867,0.35882387711553865,0.22889497812472184,0.22363013315381253,0.019220620557425933,0.5972978007029682,0.2581032070137362,0.4969451158531341,0.7647294191096311,0.27021609174182426,0.2254055114843971,0.16355221147980928,0.7480590578248922,0.3629636579457778,0.8352352888218313
0.02684196567393715,0.7515279895168966,0.18898765432098746,0.2339416311948241,0.2541256987584713,0.25585046632857217,0.07885759511555532,0.2701469400571678,0.19357445570611706,0.4474105829268662,0.05551305670480601,0.4492020619417768,0.40515745276382725,0.7763797692314675,0.016697534846670088,0.6703113745901136,0.2597943470183713,0.7509081229182867,0.4196292331447859,0.24066278229281082,0.10170652269611387,0.11557478722409263,0.375602345877087,0.626695604991861,0.6953247052371986,0.8591492135080865,0.17870919167699134,0.24849525194305333,0.28998411735228624,0.750300159181078,0.1948560070505998,0.8189797689188221
0.032818226164498095,0.7536569541089019,0.0945432098765432,0.2584054479309226,0.37926157442408276,0.24007345041992176,0.06481601176830745,0.2591021840566707,0.33746002705250405,0.5172550473391597,0.02391666213870278,0.4450252449059132,0.3344279020438687,0.8740571202338434,0.044144667624452676,0.664392726824323,0.1710629202311245,0.7361131924061685,0.4417402717008757,0.2658795055101444,0.12657965914690847,0.16765812055742596,0.275966121490844,0.12459662449667305,0.43963510205965234,0.9233546736990362,0.10558488469019166,0.22045770995754221,0.1862549263877714,0.7234069429068488,0.19052285302042138,0.6249475386060424
0.02283570214051368,0.67914319338872,0.038333333333333365,0.2632982112781423,0.37403960403852876,0.23218494246559662,0.02645427998880369,0.24963525034195885,0.13056347532836632,0.4803926911215603,0.039276126993503684,0.6827153547772546,0.41362641261031724,0.6981059972702279,0.006404860055001617,0.9316692873505382,0.21519111583684847,0.7276589463992438,0.3809349156716285,0.3297618709940561,0.2460611978083328,0.10515812055742596,0.47930753498241735,0.052346003369791796,0.28704614532466516,0.8459304422923027,0.36399711563059406,0.284779129806656,0.1862549263877714,0.9170792498211269,0.3192996572910672,0.7439399633149059
0.028043844733964183,0.6195321848125744,0.03879012345679025,0.2975475547086802,0.17732240308922614,0.2621612726920324,0.03347507166242762,0.23070138291253528,0.2547014063628486,0.40860810269781433,0.08710945127090897,0.6827153547772546,0.710709111874048,0.7328943403641122,0.009149573332779876,0.9257506395847476,0.27124531378110484,0.719204700392319,0.060324856608324595,0.9142631410610658,0.18808010122319144,0.19692521277590738,0.3547622544996135,0.13402061855670103,0.5633558777907232,0.538263743589054,0.08720229161215844,0.31281667179216704,0.22789914188969576,0.748996648107195,0.07792244534534933,0.8583557563041978
0.043668272514315654,0.5982425388925224,0.0138888888888889,0.2861311068985009,0.13806574090566268,0.27793828860068276,0.10789546340284133,0.22439009376939406,0.26849450981112427,0.42800934281234027,0.044234952392544526,0.6882844441584063,0.6843605465264133,0.7611598691278931,0.025731686979171137,0.9316692873505382,0.14346074389123237,0.6029588177971043,0.1764078090277966,0.8772786136756433,0.11590276366708195,0.12239583333333333,0.08600664924724767,0.00942399406002796,0.5435326624165896,0.42118319853496927,0.052007330048761485,0.29137619850912916,0.1761165193295497,0.8946682362592694,0.3589476881625714,0.7782647012116936
0.024438207553883068,0.7195935206368188,0.0204567901234569,0.2861311068985009,0.1520216233644428,0.2605835711011673,0.08191853421043277,0.22754573834096467,0.3586206896551725,0.4765124430986552,0.06455324264638627,0.670184903669664,0.6343211970964927,0.7524627833544221,0.04334306810472928,0.9237777569961506,0.2984674616603579,0.7086368928836632,0.09349141444245952,0.7949039844990203,0.11590276366708195,0.019220620557425933,0.13844676734527034,0.014135991090041957,0.4742769192643522,0.364531321895896,0.014077984625358909,0.6696024733010298,0.1455373523106618,0.8829939343371892,0.3116872353637383,0.8263193342671962
0.04046326168757687,0.7493990249248914,0.13323456790123464,0.31059492363459934,0.10698404004000608,0.2526950631468421,0.014041583347247867,0.20072275948261453,0.12068965517241369,0.47845256711010775,0.058233963733165625,0.6562621802167854,0.5409581901461475,0.780728312118203,0.08622921307001453,0.9079946962873757,0.6573991239619524,0.8828749179199135,0.2116409176315816,0.7343838487774198,0.11590276366708195,0.03906249999999998,0.36131726926186636,0.04786246680183911,0.18309280245340356,0.8440420464043337,0.24206012249110645,0.9802087938925804,0.3165026951889893,0.8583418194191458,0.21970380374184847,0.7302100681561909
0.024037581200540715,0.7408831665568707,0.19767901234567914,0.3350587403706978,0.07907227512244606,0.2353403456473267,0.09289917846280288,0.16916631376690847,0.5926324408456076,0.4803926911215603,0.09930927666909983,0.6242399162751646,0.5898844530044539,0.7785540406748352,0.09446335290334931,0.8586726315724543,0.15961195346839097,0.7213182618940501,0.2680240659496109,0.6627683548401925,0.10170652269611387,0.019220620557425933,0.22366195925455715,0.02198931947339862,0.34230809181787675,0.7157020415402923,0.3265280302432599,0.9686639236632523,0.19639333344599313,0.7077192334135485,0.24127233253594677,0.7828413329312651
0.03121572075112871,0.6919169809407512,0.34323456790123463,0.963154467758262,0.1406767260984395,0.23691804723819176,0.042124750041743604,0.13603204576541716,0.42711519946629684,0.433829714846698,0.130273743343881,0.6117094651675737,0.7672927524500147,0.7611598691278931,0.22586650107698333,0.8330251579206952,0.33912528817676796,0.5226434807313196,0.5744065030374153,0.10607834900091649,0.5358478217276381,0.07651228722409259,0.24305509181784418,0.0884713139332324,0.19755478421252404,0.4362903656387222,0.32176316175451736,0.9010439694629019,0.1862549263877714,0.775889864381424,0.17794036255131102,0.8237937095229019
0.019597556504200694,0.7046907684927823,0.5310123456790125,0.8816084119712669,0.056382480590439675,0.25585046632857217,0.05453744668329943,0.05240746461879618,0.406425544293883,0.3911469865947409,0.3691424862636212,0.5476649372843323,0.4167385128419954,0.7111516259304346,0.3696208590006194,0.775811562851386,0.30729790459824957,0.6579114168421148,0.13432455922824632,0.5900713232856051,0.40482756863049335,0.28963354610924075,0.3662893693481973,0.06805266013650513,0.40488291308063634,0.39852244787934,0.1984995832175604,0.5393103664271842,0.24139009116425095,0.6907280128463653,0.33611042238058497,0.6061663939587391
0.00964816728979051,0.8473279076180685,0.5893456790123457,0.7788603816796533,0.04345261535038844,0.28109369178241284,0.07885759511555517,0.0189338674294236,0.306896551724138,0.4396500868810558,0.49995155976728844,0.5379190308673172,0.5706460152086251,0.611135139535517,0.354524935972839,0.7600285021426112,0.2441181730170115,0.750314333114568,0.48043458917403326,0.551405681019027,0.34370417234741396,0.08333333333333336,0.21290202391148122,0.16543393209012763,0.2317841988314536,0.3928572602154326,0.14711493933500044,0.21715917560630563,0.16355221147980928,0.7911087787335731,0.15721850708835783,0.6409657496245431
0.01882943860709024,0.6748852642047096,0.2466666666666667,0.734825511554676,0.08168326031522301,0.28424909496414286,0.23331501193528156,0.022089512000994207,0.19357445570611706,0.5133747993162545,0.6035877339441069,0.6117094651675737,0.5972403262793294,0.6741890113931824,0.3016892053756076,0.8132963320347264,0.3111007985906227,0.8575121798991394,0.07842191033113978,0.13979588942347668,0.4591221628518056,0.20994604610924072,0.26337563758082794,0.2565325413370649,0.22477335487335962,0.7855017738772914,0.40623106950667076,0.20231577102574097,0.1761165193295497,0.3773808935117676,0.20447895988719086,0.6066410117277556
0.016793172030804274,0.7430051540707516,0.2872222222222222,0.19479952441706655,0.047306562777637125,0.9952668952274049,0.20523184524078583,0.10763124462128172,0.15125313050078013,0.2165358255640072,0.14291230117032228,0.35174299777162643,0.3502527351652344,0.6350521254125625,0.10715765181307371,0.6308537228181764,0.33471006670782216,0.8242889856751592,0.3532961174765162,0.13643365966116552,0.36348403054886924,0.15786271277590738,0.2338780711506903,0.9073307250763915,0.5303636709291043,0.7911669615411987,0.46887810108951783,0.23365184736248862,0.19186942355140096,0.7234069429068488,0.40419761005214216,0.8901548694566912
0.012018790600270361,0.45773087582017946,0.4771234567901235,0.07574228296805388,0.047306562777637125,0.2716274822372226,0.1542326884487592,0.24174613891303237,0.08322962811990971,0.37950624252602533,0.1934665324760874,0.24871484422032475,0.1649413122789432,0.5698239821115294,0.47643700887452795,0.6446639009383545,0.33029484523887637,0.8073804936613097,0.32012955964238127,0.26251727574783323,0.3141211235226662,0.0921372872240926,0.11064379362033702,0.2581032070137361,0.7617075759176255,0.5193797847093629,0.15274613318514402,0.2600401221723814,0.13430835798340268,0.7951221863047931,0.09060981522423073,0.8718483425784046
0.025673221423484337,0.7600403593458555,0.4660123456790124,0.17685939214392765,0.07260734250242032,0.08267156336132811,0.005391904967931887,0.8595738165651081,0.055643421223358344,0.5670802626616965,0.6092750849660056,0.1611409137017182,0.0673159460454955,0.6134145373692107,0.31175421220783267,0.5164265326795584,0.8085606629530907,0.7560612278160429,0.3299349739066627,0.2843717692028557,0.35486584098993074,0.07911645389075932,0.08521519190928668,0.18585258588685497,0.45321649613290793,0.2644463398335333,0.023851360798043664,0.33095861072396837,0.15341380442158747,0.8453640064231828,0.017445133583461878,0.8830526129928254
0.017594424737488977,0.7515245009778346,0.22490123456790134,0.19316860330132665,0.054455506876815336,0.07856953922507899,0.17692395017532292,0.8090835034199785,0.08322962811990971,0.821430520563132,0.43296720328714966,0.26681438470906693,0.10522698523139323,0.5086146537988842,0.14832835097974756,0.09048118180149596,0.3941396266262328,0.7946991246509227,0.26747128998570874,0.32471852635058934,0.39577846959360796,0.018229166666666626,0.13844676734527034,0.09632464231658908,0.34608824997838183,0.4665046998462279,0.011343600765353611,0.33590641225082324,0.3446559614163585,0.8986816438304894,0.03415101926320864,0.8853409288526114
0.03168261672361952,0.7919748282259333,0.13990123456790132,0.20784689334298573,0.047306562777637125,0.26058357110116737,0.5352090539011104,0.24490178348460298,0.08275862068965505,0.9281373411930248,0.4536276282377062,0.23618439311273398,0.17623945415423153,0.9195519565953927,0.21225835588837086,0.16702902623905422,0.526339417985051,0.6917284008698137,0.12113021263757183,0.6674026078187614,0.2602574387793009,0.0953627127759074,0.17777685591878734,0.16072193506011362,0.5225001305423076,0.4381787615266913,0.01681236848536421,0.32436154202149514,0.45688887104842896,0.7099603347697343,0.029920198625142187,0.8578811385351813
0.05989363982468064,0.9559016132712715,0.04101234567901248,0.16870478656522814,0.061604450975993555,0.26689437746462746,0.1860509793510341,0.22596791605517938,0.055643421223358344,0.741127372374892,0.5863324854153398,0.31136709975827853,0.10526415771120323,0.9173776851520248,0.307750976270887,0.5637757148058832,0.49873724164515887,0.8348567931838152,0.07138037588636957,0.30286403289556696,0.15145279559770303,0.18130021277590735,0.11878172305851183,0.19056458291686895,0.2804477039523414,0.4419555533026295,0.01681236848536421,0.3062196030896938,0.1761165193295497,0.7009959293449912,0.017550012993232857,0.9311072460483281
0.0176275595470632,0.8984195692871312,0.08898765432098764,0.18664491883836706,0.13421179347841375,0.19905320905743074,0.4533184137451386,0.21807880462625287,0.48620689655172433,0.7612866762081014,0.49786258063025074,0.25289166125618834,0.11288436294905373,0.5412287254494007,0.13460031789622143,0.819214979800517,0.23941793020258642,0.9040105329372253,0.04470257653310266,0.329761870994056,0.7228506492559623,0.12661271277590735,0.0925616640095005,0.19684724562355427,0.11093629557219345,0.5325985559251467,0.0746945315794687,0.32766007637273176,0.27243257889554623,0.7906399835924215,0.023576513685701506,0.9128007191700414
0.044342409489237636,0.9090643922471571,0.2000987654320986,0.22089426226890496,0.10630002856085374,0.14856675814974948,0.5066764304646805,0.2685691177713825,0.35814968222491766,0.8059095284715113,0.5800132065021191,0.2890907422336727,0.10522698523139323,0.7890956699933265,0.015552846167224452,0.6170435446979984,0.21519111583684847,0.7593623689252114,0.11007469335952685,0.31967518170712267,0.42292576670426413,0.015624999999999957,0.1712218411565345,0.1937059142702116,0.43218396425862593,0.41929480264700025,0.07312430698679968,0.32271227484587683,0.32664110224721105,0.9708656823695851,0.03626388356458287,0.9244796073534787
0.03128199037027718,0.9473857549032506,0.31676543209876534,0.20947781445872565,0.19025226832927725,0.20378631383002588,0.17411563350587334,0.9573987982837969,0.31034482758620696,0.8253107685860371,0.6242481588946637,0.2946598316148242,0.07214414173435765,0.8521495418509918,0.6239653475551092,0.5026163545593804,0.2071155110482692,0.7297725079009749,0.1653522897497516,0.26083616086667766,0.2602574387793009,0.15984562055742596,0.10488023619604518,0.22040723077362426,0.2836917387513451,0.4797234710620116,0.09424128392483805,0.31446593896778535,0.5281309635296855,0.8108098957980934,0.04260756850402356,0.9382095025121938
0.012051925409844583,0.8664885889461152,0.46676543209876525,0.19643044553280645,0.1406767260984395,0.19905320905743074,0.6264793456582216,0.9431983977117292,0.3793103448275859,0.7903885363798905,0.4662661860641475,0.30301346568655135,0.12223924988399336,0.7042990837019834,0.3906647189439575,0.595341836223433,0.27124531378110484,0.8828749179199136,0.005527759639022487,0.2726039650347667,0.3141211235226662,0.07651228722409266,0.09753376409583135,0.25339120998372217,0.20456562817061807,0.49105384638982635,0.032460577703391974,0.32271227484587683,0.2821076652413606,0.8018454903733504,0.05212309591318458,0.9288189301885422
0.0200644524766915,0.7387542019648655,0.5056543209876542,0.19479952441706655,0.2953093346556591,0.1532998629223446,0.5352090539011104,0.968443554284294,0.6822876132594005,0.8660533728265417,0.4409890704112649,0.2890907422336727,0.22376971223804365,0.7695272270030166,0.44898987609674545,0.9001031659329884,0.1710629202311245,0.8934427254285695,0.060324856608324595,0.2877339989651668,0.1738838602522234,0.08432478722409266,0.026220059049011184,0.2408258845703515,0.21444934460052262,0.44195555330262937,0.07312430698679968,0.31611520614340366,0.7875905624778249,0.8197743012228363,0.015646907511400653,0.9359211866524081
0.02640820451102056,0.7408831665568707,0.5612098765432098,0.19643044553280645,0.23177790996604136,0.11701272633244865,0.0685790300305473,0.292236452058162,0.2098738201559522,0.893215108986878,0.20717575062210125,0.31693618913942995,0.08598854743556451,0.6524462969595046,0.6925831794995656,0.5637757148058832,0.2071155110482692,0.8517652851976646,0.09349141444245952,0.2894151138463224,0.137256554626735,0.05828312055742597,0.0532315754359835,0.22511922780363827,0.4016388782816326,0.47216988751013517,0.0872022916121586,0.32930934354835006,0.6630119394549774,0.9143693533237898,0.04895125344346424,0.9311072460483281
0.019998182857543054,0.9920940113353597,0.5223209876543209,0.2437271578892635,0.1947902272356784,0.208519418602621,0.11935345845160672,0.2575243617708854,0.3004710074302547,0.9552990773533612,0.13153759912652505,0.3587043594980658,0.05233986753276925,0.2282459383584529,0.4137655266250721,0.4197552858383122,0.1549117106539659,0.9272597094562683,0.07690813552539205,0.26924173527245554,0.16266832792496322,0.045262287224092625,0.026220059049011184,0.22354856212696694,0.4288986892010451,0.4589511162943514,0.052007330048761485,0.32271227484587683,0.7371432534401601,0.9188515560361612,0.013743802029568446,0.9361584955369163
0.02246821059674556,0.8750044473141358,0.21676543209876528,0.3220113714447787,0.061604450975993555,0.5648171695296845,0.13502392850454664,0.15812155776641137,0.27194278567319347,0.5618778996025694,0.38746839511196113,0.40464934689256526,0.11373311755769329,0.7825728556632231,0.45779477304924593,0.652555431292742,0.36221723593255456,0.8913291639268384,0.022591537977012712,0.26251727574783323,0.11590276366708195,0.02703312055742594,0.0647586902845672,0.23611388754033752,0.2354818764748046,0.47216988751013517,0.011343600765353611,0.3194137404946402,0.7505249054852337,0.8220154025790222,0.011206328053792172,0.9404978183719797
0.014455683529898658,0.9324830027592141,0.22490123456790134,0.9174886765175447,0.15463260855721964,0.7444123422798634,0.22373852601763616,0.058718753761937394,0.4384020419130134,0.8621731248036364,0.150495435866187,0.4004725298567017,0.13638516002798495,0.7912699414366942,0.25880306041032236,0.6565011964699357,0.24701849941536697,0.9420546399683865,0.060324856608324595,0.3011829180144114,0.1809819807377074,0.0016127127759073038,0.012318572186544533,0.23297255618699486,0.304435588815588,0.45139753274247496,0.023851360798043664,0.3210630076702585,0.5030819460754459,0.8130509971542792,0.006448564349211661,0.9311072460483283
0.020832570373801956,0.8877747463271052,0.2204567901234569,0.7707057761009537,0.32900202071409224,0.9290034284110732,0.46500113716487124,0.07066267367245735,0.2797813522578409,0.32712289421680524,0.20717575062210125,0.6827153547772546,0.07184263729157281,0.9434689424724381,0.32364691159783365,0.9316692873505382,0.48173618680352825,0.9336003939614618,0.07123582280041055,0.31295072218250036,0.1809819807377074,0.032862712775907334,0.019665044286758353,0.19527657994688294,0.4288986892010451,0.4306251779748148,0.009773376172684754,0.6696024733010298,0.568401849981388,0.9910355945752569,0.05001023161181035,0.9150890350298273
0.03368574849033123,0.8153899501989283,0.11120987654320988,0.7070998525870977,0.3406889237196718,0.1895869995122405,0.04914554171536754,0.020511689715208906,0.306896551724138,0.3581648784000468,0.12502512475023284,0.6590467249073612,0.0480775082496667,0.8108383844270041,0.3250192682367228,0.6269079576409826,0.27547052101973113,0.7086368928836632,0.11435234798478588,0.34489190492445615,0.10170652269611387,0.013020833333333287,0.10567169353400617,0.14972727532341434,0.488270715923378,0.4117412190951238,0.03792934542340257,0.9851565954194351,0.8719695807507108,0.9529368715200991,0.04366654667236967,0.8761876654134679
0.026441339320594795,0.527986707356351,0.04454320987654316,0.780491302795393,0.3358089590736941,0.17065458042186,0.45095955381762337,0.03662924176094315,0.3172413793103449,0.941718209273193,0.3967541180187205,0.6117094651675737,0.056602226815871806,0.8195354702004751,0.27286971595893594,0.8862929878128103,0.546715834800836,0.7255453848975126,0.16962994437501075,0.35329747933023403,0.07927545804159356,0.02442895389075927,0.10567169353400617,0.14972727532341434,0.5571419477470073,0.4117412190951238,0.030890353110723117,0.9769102595413437,0.28733499613891705,0.9619012769448421,0.08934107823634259,0.8853409288526114
0.16141928558739094,0.7110776622687979,0.24490123456790136,0.8163715673416709,0.19025226832927725,0.23849574882905675,0.45798034549124716,0.014539729759948907,0.31034482758620696,0.4842729391444656,0.4915433017170301,0.6534776355262097,0.0673159460454955,0.7568113262411577,0.1843527127505872,0.6565011964699357,0.35067126205466126,0.7487945614165554,0.1475189058189208,0.36170305373601186,0.1738838602522234,0.0634914538907593,0.012318572186544533,0.16229260073678498,0.2944693918685295,0.42873678208684574,0.018382593078033065,0.9868058625950534,0.5435678597963518,0.9932766959314426,0.09187855221211885,0.8853409288526114
0.25002397929519776,0.9473857549032506,0.3983333333333333,0.5903934438978435,0.0019269737136243406,0.9700236697735641,0.294873250292205,0.1991449371968292,0.4340117511904351,0.49397355920172853,0.08079017235768846,0.5067871336847817,0.08263070148081657,0.7459399690243188,0.1657120641458622,0.8152692146233235,0.25556913977974505,0.9674173779891606,0.2116409176315816,0.9697399321391995,0.2602574387793009,0.05307478722409263,0.033566531149225004,0.13244995288002973,0.3983948434826288,0.4117412190951238,0.0746945315794687,0.967014656487634,0.2645561267846206,0.9932766959314426,0.1419936632337002,0.8624577702547529
0.057657060071723505,0.8153934387379905,0.45101234567901244,0.1358557289411336,0.14975264391124204,0.2006309106482958,0.6871107764768154,0.1533880909090555,0.4926324408456076,0.8641132488150891,0.1795641188670019,0.5727258394995137,0.09079815688452168,0.7890956699933265,0.4305768954514639,0.6317911338838151,0.30312020091720315,0.9272597094562683,0.44325404650662364,0.9411609791595548,0.11796146958797,0.03224145389075928,0.0925616640095005,0.05705800039980583,0.3218250323065108,0.33431698768839024,0.27319411479702915,0.9439249160289777,0.40766757830376377,0.964142378301028,0.26062057160124086,0.7823667151622486
0.22758890350802638,0.8473244190790064,0.5449012345679014,0.7886459083740927,0.08883220441440122,0.15645526610407465,0.14721189677513535,0.14392115719434367,0.4581496822249177,0.23981731370143838,0.05551305670480587,0.3990802575114138,0.13832841496833384,0.36652960215664304,0.5658678583617648,0.8843201052242136,0.21181575386269422,0.9230325864528058,0.6505450329699667,0.729340504133953,0.2348456654810727,0.04005395389075929,0.25643703306582133,0.017277322443384622,0.14847887650586594,0.30410265348088455,0.5364524272912405,0.9224844427459399,0.3396687308093589,0.8197743012228363,0.3652913731020121,0.7320237662469603
0.3834325549581987,0.6535956182846576,0.2176790123456791,0.19153768218558676,0.1769803973496497,0.8217197202322503,0.8148891849367708,0.22439009376939406,0.45470140636284895,0.42218897077798245,0.1056285555823204,0.4018648022019895,0.10524557147129823,0.726041798135661,0.23821771082698548,0.31913827381987225,0.20241526823384415,0.5966181332919107,0.2873712246861896,0.8167584779540428,0.1987569967030179,0.047866453890759296,0.2892121068770855,0.021475283433760723,0.13155642486070523,0.32676340413651384,0.5540499080729392,0.9092903053409935,0.1455373523106618,0.7883988822362358,0.355141477198907,0.647356079434884
0.08650215751237238,0.6706273350206992,0.11676543209876532,0.20621597222724583,0.17051546472962423,0.5285300329397886,0.22326117522124087,0.2591021840566707,0.13448275862068976,0.7302446920248601,0.5808383298565126,0.3962957128208381,0.11375170379759829,0.9217262280387605,0.31861599540227825,0.6589427845913518,0.23471768738816134,0.7608821406232239,0.2232492128735288,0.3213562965882782,0.1738838602522234,0.026041666666666633,0.23021697401681,0.04763400633977784,0.19755478421252404,0.2814419028252552,0.056311938501435635,0.26333865652361804,0.12416995092518093,0.9551779728762848,0.0504322952685534,0.7640601882839619
0.10424297713967826,0.7941003042788765,0.4056543209876542,0.2388343945420438,0.43564405501452236,0.10123571042379823,0.4860635121857429,0.6058837577415558,0.14482758620689667,0.6557619158709778,0.09478918369830956,0.4297102491077468,0.12223924988399336,0.8110032483761781,0.04197071146584012,0.7225437329592708,0.1909643014711106,0.7159035592831505,0.35867932402957964,0.08095686858303167,0.22363013315381253,0.05109187944257402,0.3715333811579996,0.167004597766799,0.3495384860702707,0.5193797847093629,0.14289154394739279,0.20231577102574091,0.2200226897787701,0.7458179564687064,0.14410652753507433,0.7302100681561909
