L_Quad: EMG 1,L_Quad: Acc 1.X,L_Quad: Acc 1.Y,L_Quad: Acc 1.Z,L_Hamstrings: EMG 2,L_Hamstrings: Acc 2.X,L_Hamstrings: Acc 2.Y,L_Hamstrings: Acc 2.Z,L_AnteriorTibialis: EMG 3,L_AnteriorTibialis: Acc 3.X,L_AnteriorTibialis: Acc 3.Y,L_AnteriorTibialis: Acc 3.Z,L_Calf: EMG 4,L_Calf: Acc 4.X,L_Calf: Acc 4.Y,L_Calf: Acc 4.Z,R_Quad: EMG 5,R_Quad: Acc 5.X,R_Quad: Acc 5.Y,R_Quad: Acc 5.Z,R_Hamstrings: EMG 6,R_Hamstrings: Acc 6.X,R_Hamstrings: Acc 6.Y,R_Hamstrings: Acc 6.Z,R_AnteriorTibialis: EMG 7,R_AnteriorTibialis: Acc 7.X,R_AnteriorTibialis: Acc 7.Y,R_AnteriorTibialis: Acc 7.Z,R_Calf: EMG 8,R_Calf: Acc 8.X,R_Calf: Acc 8.Y,R_Calf: Acc 8.Z
0.14666586738080423,0.06419431323894303,0.16512414193645072,0.2479927832641431,0.16790447953684728,0.2409385611804035,0.010816754423563849,0.23694067165174615,0.02192147368009422,0.19029794474482598,0.0038353732485644776,0.1440818453003706,0.4931968997774621,0.10136418273939192,0.5973068483640733,0.1566796239259203,0.36576177949147787,0.10026948640910723,0.16520773666379276,0.25536425195808476,0.42115364490532103,0.7923680586780577,0.151556796869776,0.2578673927879429,0.3539033452312695,0.15925745115342826,0.021951907770810308,0.30012231673872525,0.5829336106548328,0.0643501419131304,0.5295671149338539,0.057213865768234354
0.14666586738080423,0.06419431323894303,0.16512414193645072,0.2479927832641431,0.16790447953684728,0.2409385611804035,0.010816754423563849,0.23694067165174615,0.02192147368009422,0.19029794474482598,0.0038353732485644776,0.1440818453003706,0.4931968997774621,0.10136418273939192,0.5973068483640733,0.1566796239259203,0.36576177949147787,0.10026948640910723,0.16520773666379276,0.25536425195808476,0.42115364490532103,0.7923680586780577,0.151556796869776,0.2578673927879429,0.3539033452312695,0.15925745115342826,0.021951907770810308,0.30012231673872525,0.5829336106548328,0.0643501419131304,0.5295671149338539,0.057213865768234354
0.14666586738080423,0.06419431323894303,0.16512414193645072,0.2479927832641431,0.16790447953684728,0.2409385611804035,0.010816754423563849,0.23694067165174615,0.02192147368009422,0.19029794474482598,0.0038353732485644776,0.1440818453003706,0.4931968997774621,0.10136418273939192,0.5973068483640733,0.1566796239259203,0.36576177949147787,0.10026948640910723,0.16520773666379276,0.25536425195808476,0.42115364490532103,0.7923680586780577,0.151556796869776,0.2578673927879429,0.3539033452312695,0.15925745115342826,0.021951907770810308,0.30012231673872525,0.5829336106548328,0.0643501419131304,0.5295671149338539,0.057213865768234354
0.11573751290277516,0.38992589581573817,0.7777389413469222,0.23811448289802528,0.38118854813770703,0.14483300604141072,0.010816754423563849,0.42627934594598227,0.14359576769921625,0.4968375385543363,0.18831451161397514,0.1531499579816648,0.07263950598220584,0.2072512020314023,0.3691525571487558,0.1566796239259203,0.44749912627603783,0.46802918771033214,0.78279848615492,0.2740217256283579,0.21653201266832847,0.48177083333333337,0.7800467567080863,0.26701316503412625,0.26311284972141036,0.24360306954801503,0.036029892396169216,0.3282041679480417,0.21776073483147404,0.4549435753057091,0.32352793191147455,0.4713930671158828
0.07924389269111591,0.6830722585548812,0.13773894134692236,0.2478072359207863,0.38118854813770703,0.22448340812478346,0.3618563381047601,0.7560442036751105,0.21256128494059562,0.9391858131655282,0.1263855782644128,0.22904714323677636,0.06698114192460919,0.6731975723451152,0.12797225657641123,0.030941510249641247,0.30288268312930383,0.8348567931838152,0.19961984423804813,0.39186497728680975,0.2892479870718716,0.11909027465527566,0.06256789296118309,0.22275630427348442,0.3661515695235621,0.5545561944988948,0.056311938501435635,0.32165140846937396,0.3590735521157285,0.6550433934224984,0.1038498262692977,0.9771168414021415
0.011254159951091483,0.896619468712975,0.09051671912470009,0.26900921042540493,0.22319090866929786,0.8467759720725789,0.6146048383552215,0.3500092186603861,0.5091130090785265,0.7818699766153964,0.591528312178084,0.20677078571217056,0.10390145261481055,0.785738566154658,0.558903619900017,0.4154563267671696,0.1833637322583301,0.7261330607677832,0.20777604115790876,0.4002705516925876,0.24932849057398576,0.19601389201139108,0.21988824725525108,0.28244159998699503,0.2574011401610343,0.5375606315071728,0.21174263701014742,0.34144261457679353,0.7050979698377159,0.7738217653003435,0.08640469268583582,0.9725402096825699
0.018829438607090226,0.789520488155141,0.02329449690247793,0.22823618253190747,0.2745465138372771,0.37120965607523215,0.20500711686981865,0.36736526380402434,0.6401474918371471,0.8033771323638464,0.4398656182607885,0.24296986668965495,0.08996798851578723,0.7471228014196194,0.356824104823593,0.49634451289964093,0.2565348248049273,0.8411974776890085,0.047471011626256866,0.33638818620867594,0.29511262260584625,0.07101389201139101,0.14122807010821709,0.3075722508137363,0.3261898914675096,0.4733551713162232,0.014912915458130852,0.31175580541566417,0.585266723913017,0.7962327788622011,0.11748874888909518,0.9816934731217131
0.041701762805109725,0.8859746457529492,0.08448328087529994,0.22823618253190747,0.4069782443785495,0.24499352880602898,0.7734056755202289,0.34054228494567423,0.4953199056302508,0.7471135360317211,0.49673912847977436,0.2095553304027463,0.04830854053454008,0.43946339218308006,0.13460031789622143,0.8807275339409687,0.15961195346839097,0.8801736805479119,0.10827636765550422,0.3565615647825428,0.21120601398178745,0.03836110798860898,0.23299827677975674,0.3122842478437503,0.34004661834938954,0.49412752608388333,0.0923418308976047,0.31670360694251903,0.6303014971590155,0.8119204883555015,0.1139997221724028,0.8787073208841737
0.024875455964731227,0.8540401768728711,0.3511499475419666,0.22823618253190747,0.1579976394684091,0.3365002210762013,0.609119150357429,0.8444022516790871,0.5999999999999999,0.7994968843409413,0.6863174958763936,0.2568925901425336,0.14117618323703712,0.921064516889041,0.806602614507085,0.5792055816207091,0.15057066365462937,0.907649980070417,0.1193318869335492,0.3498371052579205,0.23101483776124157,0.17117360798860898,0.13467305534596424,0.32799090461046365,0.4829234279369461,0.47902035898013046,0.04306888470884867,0.3430918817524119,0.7386093700237164,0.8410548059859163,0.13017611876797655,0.9359211866524081
0.020832570373801956,0.9051353270809959,0.5344832808752998,0.21355789249024837,0.48329262353173574,0.35227723698485175,0.2408131544053008,0.8270462065354489,0.8310344827586207,0.7839758922493205,0.8000645163143651,0.2387930496537914,0.20278187930692954,0.9319358741058799,0.7476026577472722,0.4983173954882378,0.3201895919619641,0.8623330927063204,0.11380412729452671,0.32966372668405364,0.17565598205116648,0.18419444132194232,0.016092284185850604,0.33741489867049157,0.34697498179032954,0.5092346931876363,0.05010787702152813,0.34144261457679353,0.6451575823311455,0.8186437924240587,0.1428634886468579,0.9382095025121938
0.03569236750497454,0.907264291673001,0.6289277253197444,0.2005105235643292,0.41976119884211777,0.30810159244063057,0.8182077968903155,0.8081123391060254,0.4495076805766457,0.7665147761462472,0.5725704754384221,0.24993122841609425,0.07101246892283831,0.8210480304941234,0.6069361022611365,0.5792055816207091,0.25556913977974505,0.9351262795929225,0.0751098098213693,0.3313448415652092,0.16266832792496322,0.09304860798860898,0.09534296677244726,0.32484957325712094,0.3933701401843977,0.49790431785982164,0.036029892396169216,0.349688950454885,0.5661017561154983,0.834331501917359,0.10829040572690618,0.8832839526037454
0.03205010826738763,0.9242960084090427,0.7622610586530776,0.17441578571249083,0.5113512992257788,0.22606110971564847,0.46014742153549515,0.6487522882417098,0.6633007840249215,0.7936765123065836,0.4145885026079059,0.23322396027263997,0.08395623409739925,0.8841019023517888,0.6103669938583594,0.7950716832045354,0.17528812746975078,0.9414669640981159,0.16355396404572897,0.34647487549560935,0.10347864449505693,0.0982569413219423,0.14122807010821709,0.33741489867049157,0.21533607641247027,0.48468554664403785,0.10641981552296345,0.3430918817524118,0.5051883951128725,0.9607906843874341,0.13969164617713756,0.874130689164602
0.04330426821847911,0.8728754827221308,0.7955943919864109,0.19561776021710953,0.9348195347186625,0.18661856994402246,0.07400387948617926,0.6739974448142747,0.35738887114749207,0.8227783724783725,0.15987775650448222,0.29169939877473017,0.12306941825272781,0.5139546357336868,0.69613928378893,0.4864800999566566,0.22423240565061,0.7684042908024067,0.15249844476768412,0.3263014969217425,0.24783331960727586,0.10086110798860898,0.06256789296118309,0.33113223596380625,0.3043943485570109,0.5035695055237289,0.05010787702152813,0.33154701152308375,0.4363719566414287,0.845537008698288,0.12383243382853586,0.8718423733048162
0.03368574849033123,0.9285539375930532,0.5844832808752999,0.2608546048467055,0.7518631212650463,0.09529317608824844,0.3478147547575122,0.2584955260848386,0.3172413793103447,0.4383022349658154,0.5029707955917311,0.4156116375053498,0.07263950598220584,0.6552822795525919,0.5973068483640733,0.6324734115128244,0.24845922001634796,0.9266720335859976,0.10827636765550422,0.33470707132752037,0.18630797942424837,0.07481944132194229,0.016682789625413558,0.33270290164047756,0.2758354032398805,0.5092346931876363,0.021951907770810308,0.3381440802255569,0.3038622328929146,0.8051971842869442,0.12383243382853586,0.8809956367439595
0.37057937684166947,0.7384253379470164,0.24111111111111108,0.6327973929070809,0.15882856172404447,0.6826950066226148,0.3875477003840408,0.08414616350556277,0.2724137931034481,0.5159071954239193,0.14909117645137518,0.37802028418257755,0.15249291135223053,0.6318864149211276,0.2336323390584544,0.9537241897190525,0.40566476785857564,0.8801736805479119,0.007671142225294955,0.39018386240565417,0.1304104868667396,0.05659027465527566,0.12156302582145859,0.291865594047023,0.18021992998159303,0.45635960832450123,0.04306888470884867,0.3595845535085948,0.3192279708486928,0.8545014141230309,0.06991111184329005,0.9702518938227841
0.22326562613986067,0.8175224033299957,0.8832944969024779,0.6063061523921989,0.4211992560396829,0.32171688263269355,0.8322493802375633,0.14858262364776922,0.5931034482758621,0.560530047687329,0.0340803002307594,0.41839618219592545,0.08466301481898184,0.6726764510995339,0.3266095013431929,0.5456665776145625,0.16057763849357323,0.8907414880565676,0.06142585326248608,0.3918649772868097,0.18630797942424837,0.07221527465527562,0.049457863436677574,0.2573109491602537,0.44380710892918085,0.3846005645816751,0.08530283858492524,0.9548813854591903,0.1166806650803284,0.8890754409894898,0.02283726578198646,0.9221972607672813
0.03368574849033123,0.7199154075765437,0.14885005245803348,0.4738753577941191,0.7442252606498091,0.10552470817355937,0.2639817669282597,0.12822871616113884,0.4288180254042319,0.9566469292686017,0.5662511965252015,0.6077085362812285,0.20278187930692954,0.779736873070136,0.3070534192390228,0.6127445856268557,0.5843093721060872,0.711338130255665,0.2079114836965818,0.9042745960841347,0.10347864449505693,0.020131941321942355,0.18711317344398692,0.21961497292014176,0.2495035643909926,0.4091497111252735,0.02899090008348976,0.9367394465273892,0.06957426130744294,0.9764783938807342,0.009384949899718421,0.8993141021694231
1.0,0.8753298227929232,0.2511499475419666,0.6092418104005307,0.6126244523641721,0.5395739440758438,0.4461058381882473,0.20327174608235302,0.171181974595768,0.5256078154811823,0.926450094578778,0.642515344913425,0.4931968997774621,0.6335395651189142,0.2490713512459571,0.6443107070444055,0.22230103560024556,0.7134516917573962,0.21288646737170205,0.8975501365595125,0.17565598205116648,0.08002777465527562,0.22644326201750392,0.1834896623567011,0.18770510316586447,0.4034845234613661,0.036029892396169216,0.9021048358394048,0.09359078390629308,0.951826278962691,0.049350165018194656,0.8512594691139204
0.9679498917326124,0.7816553807446944,0.25777777777777783,0.5936552861293234,0.5641449615913231,0.7552692798024065,0.27760683802127306,0.1120736179639626,0.16206896551724131,0.3956195067138583,0.5093776863062156,0.684283515272061,0.45722410767409977,0.9145417025589377,0.1632990613153866,0.670780080122933,0.24652784996598345,0.6986567612452779,0.31293891683800906,0.8252621966698229,0.17565598205116648,0.12690277465527566,0.3051034391645379,0.14265235476324653,0.32408650577499803,0.3524978344862002,0.04223395387607673,0.8625224236245657,0.3038622328929146,0.9204508599760904,0.11310419865957348,0.7688800981616303
0.2732637950369854,0.907264291673001,0.29218338579136677,0.3228296072448216,0.26547059602447454,0.05663948711205495,0.12755368008898835,0.24113948094120027,0.3160095608026643,0.7412931639973634,0.0038353732485644776,0.4705697102703742,0.5455084754899434,0.5988374889819376,0.3461883408722022,0.5149551020151104,0.6755005887858687,0.8475381621942022,0.7402347369344469,0.7210330740381776,0.23101483776124157,0.09304860798860898,0.3247684834512964,0.06490440376801565,0.7146936811398186,0.20595831357979738,0.5087881126052202,0.8608731564489474,0.19374421223262397,0.9316563667570192,0.35194393662951495,0.6659058844712675
0.045634782223521575,0.8157188142167776,0.6371833857913667,0.6344283140228207,0.3054813039264505,0.16453074767191186,0.05616633338899147,0.1953826346534265,0.22881802540423193,0.1692070345773402,0.3450764345624791,0.3376443861692296,0.6554510039146637,0.5117803642903191,0.4964043264897502,0.732761339796204,0.5092225233827101,0.8010398091561163,0.785009590010529,0.5364466600872961,0.36685905068400887,0.07221527465527562,0.3182134686890436,0.00851750597551485,0.4873979297400115,0.3600514180380767,0.1275367924610018,0.8328356144634362,0.12416995092518093,0.789509474793644,0.49762666126377014,0.6613292527516959
0.025640086613910106,0.6000426394666786,0.29559439198641096,0.12874999447177365,0.25722560046730747,0.6385193620783937,0.8801217089593127,0.5853720680263469,0.2689655172413791,0.3781583906107849,0.16809281909166898,0.29169939877473017,0.6950595523178406,0.7362514442027805,0.09982756676676444,0.2017931424221295,0.30288268312930383,0.5528210176258267,0.11718850434727666,0.2876358546551644,0.35663796278887383,0.018229166666666685,0.43620373440959426,0.05736520851999325,0.44292037711723314,0.23560612902091238,0.18569836545323354,0.24908365274216876,0.14818647352403116,0.8096793869993156,0.08862498241464006,0.7048072540876268
0.032086730324893425,0.7192646566189694,0.26226105865307764,0.13038091558751355,0.1528525456200782,0.47173277566864713,0.2531650125046959,0.7465772699603985,0.24137931034482757,0.45531888470925064,0.8568504147320869,0.16500261535353472,0.9681460902547918,0.9471557742094543,0.11323080142077269,0.38586308793821666,0.2080811960734514,0.43822797053592255,0.758476343743221,0.097669873084585,0.2348456654810727,0.06580555867805767,0.350037788304301,0.14893501746993187,0.40143267698874746,0.26940841541555943,0.04223395387607673,0.19630710312238314,0.2794585440279914,0.7245175354642569,0.1139997221724028,0.7391200534372375
0.020795948316296154,0.7433340180886009,0.6567055030975222,0.13527367893473322,0.16646642233928213,0.2544597383512192,0.3437332250944446,0.7244877579594043,0.22881802540423193,0.5762168314014212,0.20474463678834873,0.26803076890483646,0.37882747365609776,0.5639628789311455,0.3084485333027511,0.5476394602031595,0.19903990625968987,0.6013082472425201,0.6070157296340051,0.23552129333934171,0.46436533227560434,0.0911458333333333,0.151556796869776,0.5683879970658651,0.5258132968570506,0.5765929423946012,0.9149379690468242,0.036328187087408016,0.17884179498925312,0.8314486031449166,0.06071276868110109,0.5377482577760837
0.02567670867141592,0.6766853647788657,0.17555555555555552,0.2543309203837459,0.1293318288324363,0.3491218338031216,0.13269296263149227,0.5853720680263469,0.23793103448275862,0.2908528100954181,0.1137470204379715,0.38219710121844114,0.6549556396668156,0.5270002643938935,0.10224056959724005,0.539747929848772,0.14346074389123237,0.7249515950937939,0.38866922389261704,0.29099808441747554,0.4196584739386113,0.09565277465527564,0.151556796869776,0.7117897733459576,0.5311745304720636,0.8919550556854425,0.4517722748725167,0.16497102678563544,0.2417772574303241,0.8650651234877031,0.43784483833084936,0.45536888682379356
0.02163382308048665,0.7128777628429539,0.379405608013589,0.3375078972864808,0.13757682438960323,0.8578198832086342,0.23631511248799847,0.31687495065889476,0.3379310344827587,0.9391858131655284,0.35320388534840186,0.39333527998074397,0.8784610199418845,0.8580106450313756,0.10052512379862864,0.6423378244558087,0.25556913977974505,0.7608821406232239,0.21951977893852903,0.26914359096245316,0.5471946672047958,0.1529444413219423,0.15433809963272274,0.6266956049918612,0.5959217364379907,0.778651302407296,0.24719966177655253,0.10724667563899491,0.26455612678462054,0.6572844947786841,0.38392351634560357,0.3835157688265182
0.032086730324893425,0.830621566360814,0.1733721697641888,0.3407697395179605,0.1361387671920382,0.8325766577547937,0.06318712506261541,0.2947854386579005,0.22068965517241396,0.4518831030459836,0.022793209988226416,0.3961198246713198,0.502689062876889,0.8754048165783179,0.05969751379167705,0.6186632333926463,0.15057066365462937,0.7324737452729767,0.1393672641727031,0.24560798262627515,0.5784959741437432,0.1972152746552756,0.27232836535327376,0.287153597017009,0.44380710892918085,0.8617407214779368,0.6132272620358838,0.19795637029800145,0.2417772574303241,0.8516185153505885,0.574234064528824,0.4805403612814378
0.019667313371280734,0.6766853647788657,0.22892772531974426,0.30652039608742265,0.16790447953684717,0.6011043061195803,0.05294150446530745,0.3989217095197304,0.3413793103448275,0.42666149089709976,0.0733474412939913,0.41004254812419844,0.3838495291500233,0.7161618799668893,0.19522911059439804,0.6285276463356306,0.22423240565061,0.8559924082011269,0.04139047602333213,0.24560798262627515,0.5424073053656885,0.12950694132194235,0.29730241748649694,0.21961497292014176,0.5038940331708209,0.7408833846479137,0.47244741578229493,0.19795637029800145,0.36224064265624606,0.5999733660415268,0.11748874888909518,0.8077695292308128
0.027279214084785303,0.7575860192750631,0.07892772531974439,0.32446052836056155,0.07714530140882173,0.30021308448630535,0.04914554171536754,0.8759586973947934,0.2724137931034481,0.5236676914697296,0.015122463491097462,0.40447345874304697,0.560460959904951,0.7248589657403605,0.12661127864994173,0.6324734115128244,0.25460345475456275,0.711338130255665,0.10274860801648174,0.21702902964663046,0.4337103895535773,0.06700694132194228,0.5483594828807802,0.3138549135204216,0.26311284972141036,0.7692093229674505,0.6484222235992811,0.20785197335171124,0.3038622328929146,0.7783039680127151,0.7336471632463143,0.8718483425784045
0.015988432076187994,0.7405543025390214,0.2678166142086332,0.2967348693929832,0.07941428086202224,0.32230090675841594,0.14421179622241828,0.3358088180883184,0.4034482758620689,0.5469491796071607,0.02144174240431811,0.40447345874304697,0.8082268334697742,0.7792157518245547,0.1643510862193928,0.6245818811584369,0.23845224517740413,0.7092245687539337,0.3846643496066283,0.24392686774511957,0.6021356256430284,0.08002777465527562,0.28746989534311773,0.828019033419636,0.22234692037056428,0.7352181969840065,0.7469681159767935,0.20950124052732955,0.19413137849869705,0.7446874476699287,0.7613727702423239,0.6155509970088022
0.045708026338533186,0.67029847100285,0.09559439198641106,0.34240066063370045,0.08932112093046042,0.33334481789447123,0.03510395836811967,0.6453293148861884,0.12758620689655162,0.4887454592635828,0.01647393107500577,0.4058657310883348,0.25745556462064895,0.7118133370801539,0.14376573663605585,0.6265547637470338,0.47836082482937403,0.8285161086786216,0.4620529845529429,0.23047794869587498,0.3976217207755226,0.10346527465527565,0.2788833801155266,0.8468670215396921,0.8441880930716726,0.7238878216561918,0.45133043884425655,0.24908365274216873,0.1709653428783275,0.8320904005611733,0.6789048660295951,0.6933537362415209
0.02167044513799246,0.7192646566189695,0.1955943919864109,0.2478072359207863,0.07116928530485518,0.3412333258487964,0.028083166694495735,0.6405958480288324,0.0908869909214732,0.47322446717196215,0.01647393107500577,0.40168891405247126,0.23680253581042102,0.9188902454456731,0.11288771226105045,0.6226089985698401,0.35067126205466126,0.7134516917573962,0.6555245719187299,0.21366679988431928,0.4030554468315503,0.17638194132194232,0.5410839706056396,0.8374430274796639,0.5337108726270923,0.6747895285689949,0.2964726079653087,0.24908365274216873,0.1631650452137361,0.7536518530946718,0.5869214344077053,0.837523604681617
0.012820043306955064,0.7746177360111046,0.1789277253197442,0.28858026381428376,0.046817646261577923,0.364898849711772,0.08102467115980304,0.3799878420903068,0.05517241379310368,0.48486521124067766,0.041751046727888354,0.4267498162676526,0.04830854053454008,0.9362844169926153,0.12318038705271891,0.6482564722215992,0.6693251263004848,0.6775211462279662,0.6555245719187299,0.23215906357703056,0.3921879947194949,0.057291666666666664,0.29199340964003223,0.7086484419926148,0.42310449912351505,0.7503253640877593,0.09150690006483275,0.2540314542690236,0.217760734831474,0.7693395625879721,0.3300021943603578,0.7528618871431294
0.028481093144812328,0.7873915235631358,0.1178166142086333,0.3554480295596196,0.046817646261577923,0.6216144268008259,0.06318712506261541,0.3563205078035273,0.07463025045783689,0.5100868233895615,0.037915673479323876,0.4253575439223648,0.029070102738711374,0.7183361514102572,0.12318038705271891,0.8049360961475196,0.5253737329598688,0.7409279912799015,0.666580091196775,0.265781361200142,0.19013880714407952,0.05989583333333339,0.35039803706074485,0.21019097886011376,0.21444934460052262,0.81264242839074,0.28494815706201376,0.25732998862026024,0.21027144898662148,0.5205773120513527,0.5040147519977869,0.45536888682379356
0.03368574849033123,0.7064908690669384,0.02329449690247793,0.3701263196012787,0.05589356407438048,0.88779621343507,0.10572838735859345,0.30267455008682703,0.0908869909214732,0.4809849632177725,0.0467188580572007,0.6814989705814852,0.07101246892283831,0.6813735368730051,0.06073815998326353,0.9182123031243088,0.461718965802832,0.93089915658946,0.45652522491392056,0.3700104838317873,0.24783331960727586,0.08523610798860896,0.2779326259195199,0.22432696995015575,0.19995332745815714,0.5677749657146786,0.16880478390280285,0.31835287411813734,0.19374421223262397,0.6656071027871705,0.16417086242207096,0.7848863706329543
0.4739043539464887,0.8622306597621048,0.19329449690247788,0.6572612096431795,0.08765927641918943,0.8814854070716099,0.01726641227093189,0.2506064146559121,0.16206896551724131,0.36651764654206925,0.14285950933941843,0.6285926214605465,0.12356478250057604,0.6813735368730051,0.02574306569159081,0.847188529934822,0.18999861644592833,0.8031533706578474,0.2173086750829201,0.9059557109652904,0.3200106571633854,0.13020833333333334,0.8229496053825112,0.07629844056473703,0.26311284972141036,0.4997927137477907,0.13994491542081716,0.3513382176305034,0.2567558291200292,0.6066966701100842,0.2802602968138353,0.8672717108588329
0.32290484079393034,0.7852625589711306,0.20218338579136672,0.8987303084443629,0.2027700935904921,0.883063108662475,0.03832878729180369,0.23640601408384435,0.21945783666473356,0.36263739851916404,0.14917878825263906,0.623023532079395,0.046751975633084024,0.7139876085235216,0.017840636305558683,0.833378351814644,0.34980058414463877,0.5295718411067837,0.2466058011697392,0.5574605961017407,0.4392518429790917,0.09375000000000003,0.44377449940451635,0.16307100855997383,0.2907850632265933,0.39593093990948974,0.2893025840511254,0.3183528741181374,0.3650967213770246,0.7088298259709566,0.3915919675010192,0.6109743652892305
0.12783642877371398,0.7384253379470164,0.24996116356914455,0.9199322829489817,0.4878305824381369,0.38067586562042244,0.024287203944555823,0.2600733483706239,0.17931034482758615,0.4518831030459835,0.06319278913220647,0.6299848938058343,0.10390145261481055,0.785738566154658,0.04287476625286561,0.8570529428778062,0.26316970899252556,0.639477039196805,0.16908172368475133,0.6015058059880166,0.8144189133196833,0.08333333333333336,0.2189374930592444,0.16307100855997383,0.24160598862095092,0.6892644991087248,0.22511672240423847,0.9614784541616636,0.7093440106957166,0.933897468113205,0.19081433916772175,0.6796238410828057
0.03762225515667466,0.9264249730010478,0.2227389413469223,0.40763750526329634,0.4492579317337262,0.33492251948533625,0.07343274565992336,0.271118104371121,0.23916285299043882,0.4809849632177725,0.13645261862493388,0.6369462555322737,0.04753025808381205,0.7466016801740382,0.1025722800445427,0.8669173558207907,0.22230103560024556,0.724019499266052,0.13591516585061666,0.7613798311859113,0.21120601398178745,0.09375000000000003,0.39687364583607726,0.015428434952868712,0.3933701401843977,0.7767629065193269,0.4865254004076537,0.9565306526348086,0.7389965362897896,0.7558929544508575,0.21016257823301582,0.6956420521013066
0.028444471087306526,0.7831335943791254,0.3099611635691446,0.8807901761712239,0.7487632195562102,0.35543264016658177,0.031879129444435654,0.23956165865541496,0.6229061125268024,0.46158372310324647,0.16678515740839298,0.6118853533170922,0.07950001500923334,0.7466016801740382,0.09571049685009705,0.8195681736944658,0.4215784596478348,0.5359125256119773,0.05852653090430184,0.7882776692844005,0.11413064186813889,0.08523610798860896,0.27531062001461876,0.2070496475067711,0.19995332745815714,0.4129265029012117,0.31393905714550335,0.958179919810427,0.7297301220416419,0.7395634475413007,0.17558949531306414,0.8077754985044012
0.013657918071145548,0.72352258580298,0.5044056080135889,0.8286007004675472,0.1747114178964492,0.38067586562042244,0.024858337770811718,0.1890713455102853,0.4206896551724139,0.39949975473676347,0.36331473160955485,0.5617635488867291,0.15143171069862268,0.7009419798633151,0.2782339298223511,0.7564359308593663,0.21422543081166626,0.6098871781725684,0.3404422724944485,0.10775656237151841,0.17565598205116648,0.11458333333333333,0.6361966806949682,0.18034833100335848,0.31820983518031387,0.42425687822902636,0.9740655044733316,0.7272825152238651,0.6395679114071633,0.5529102375616259,0.28559639978427315,0.503435458426473
0.02840784902980071,0.7873915235631358,0.4999611635691445,0.7209599068287138,0.42883711665492047,0.39960828471080284,0.0950662545070509,0.10702458664944965,0.7598525081628522,0.42666149089709976,0.5029707955917311,0.5589790041961534,0.05714947698172645,0.6639793653260629,0.3152875590723575,0.7564359308593663,0.14346074389123237,0.8336753275098259,0.796065109288574,0.7798720948786226,0.1809819807377074,0.19200694132194235,0.13146054400150045,0.13322836070321853,0.2847021913390239,0.36949339747792215,0.1416147770863609,0.28371826343015305,0.7375304197062333,0.838171907213474,0.20762510425723957,0.7139485789795934
0.032086730324893425,0.6852012231468864,0.40111111111111114,0.6169071396445083,0.8009497469798248,0.40591909107426305,0.28462762969489697,0.10544676436366435,0.325369749542163,0.5430689315842556,0.5769063588764125,0.5659403659225928,0.06599041342891282,0.531348807280629,0.21030227619733924,0.8116766433400785,0.19903990625968987,0.7324737452729767,0.36759601599499503,0.16995781297427445,0.25848531698035787,0.10937499999999999,0.23240777134019394,0.35155088976053356,0.3677600721131494,0.6496081854613734,0.08856027153825713,0.24743438556655042,0.6833980508009027,0.6617666974910557,0.1051745924852726,0.44392730752486437
0.02167044513799246,0.7089452091377306,0.4766666666666666,0.1532138112078721,0.47421670571893326,0.8735968991172847,0.27760683802127306,0.20327174608235302,0.5435957676992161,0.12943449234256196,0.044234952392544526,0.22904714323677638,0.41843602205927444,0.5009090070734802,0.20552178538606652,0.5752598164435154,0.41442103632685784,0.7451551142833637,0.4288864267188081,0.1581900088061855,0.19013880714407952,0.13090972534472434,0.1294940395728246,0.7808990631194962,0.3945043135478075,0.6049188807141379,0.6390094703897901,0.19795637029800145,0.8006943454863069,0.6147035690111546,0.47907879043721385,0.803192897511241
0.03649362021165923,0.38523011213335406,0.6144056080135889,0.17767762794397063,0.3820194703933425,0.3270340115310111,0.3514560959354309,0.5979946463126293,0.8275862068965517,0.5296538551265589,0.6893895235317398,0.21790896447447347,0.13353739175928164,0.6748507225429018,0.5108711375388976,0.7911259180273416,0.18999861644592833,0.7197923762625896,0.7052744086699323,0.16827669809311893,0.22185801135486946,0.13541666666666669,0.14355482329333683,0.842155024509678,0.3661515695235621,0.7937584695110488,0.04223395387607673,0.22434464510789426,0.973823983034003,0.6909010151214704,0.209472180510985,0.7482733168763809
0.016061676191199623,0.7536534655698398,0.4171833857913667,0.16952302236527111,0.41605416219135205,0.04512226549874016,0.010816754423563849,0.6834643785289864,0.48620689655172433,0.539908291608584,0.699500369792893,0.15386443659123183,0.06599041342891282,0.42467834636817925,0.11081779859029711,0.34640543616627945,0.2232667206254278,0.7744956054613529,0.2636741347813724,0.27250582072476426,0.11413064186813889,0.07221527465527568,0.048867357997114766,0.8861336634564753,0.3677600721131494,0.3619398139260458,0.08856027153825713,0.26887485884958834,0.4819760274212622,0.8695473262000746,0.08006100774639517,0.8901548694566912
0.037658877214180465,0.7128777628429539,0.19162783023581123,0.2347598669948671,0.6965766921325954,0.12035510312769077,0.3618563381047601,0.7544663813893252,0.6081283702318181,0.9663475493258648,0.2034807810057046,0.20677078571217056,0.06698114192460919,0.5188242998660036,0.08301619794037261,0.02285269163639411,0.12730953431407374,0.8252210815029012,0.35329156220287317,0.3094903481101868,0.11413064186813889,0.11909027465527566,0.0554223727593676,0.277729602956981,0.40739182810058566,0.49601592197185246,0.0941914653884007,0.3216514084693739,0.695831555589568,0.816402691067873,0.04009579262791891,0.9130380280545497
0.02327295055136182,0.8455243185048504,0.12218338579136678,0.28205657935132417,0.38716456424167356,0.38067586562042244,0.5865216716607258,0.35947615237509783,0.3839904391973355,0.9508265572342439,0.4904198495665537,0.22626259854620065,0.05714947698172645,0.9232387883324086,0.38392814844165324,0.28919184109697044,0.09692287133653633,0.7705178523041379,0.06958205018234681,0.39858943681143194,0.11413064186813889,0.055388892011390994,0.23955329154200958,0.22589763562682708,0.2968679351141626,0.4658015877643468,0.06251599998134315,0.3282484771718472,0.3729731734879503,0.7827861707250866,0.07625479678273073,0.9313505242064247
0.03368574849033123,0.9200380792250321,0.017816614208633216,0.2347598669948671,0.22009100696046174,0.3869866719838826,0.19517800852674513,0.36736526380402434,0.6620689655172413,0.8790419688104978,0.5283355230458776,0.24575441138023066,0.061180803979955616,0.8101766732772847,0.3259460804485876,0.5160733387856096,0.30403838238480557,0.9372398410946536,0.08616532909941428,0.35992379454485396,0.1809819807377074,0.10747222534472431,0.22644326201750392,0.3122842478437503,0.18021992998159303,0.43936404533277923,0.05010787702152813,0.3381440802255569,0.4430107555078006,0.8477781100544737,0.11336535367845872,0.9473687352249256
0.1526787032587678,0.9008773978969854,0.05670550309752214,0.2347598669948671,0.2986743655668486,0.28443606857765497,0.5726110336545847,0.32791970665939185,0.8241379310344827,0.7354727919630056,0.45882345500045046,0.22208578151033706,0.10390145261481055,0.4175032506050656,0.13460031789622143,0.860998708055,0.2000055912848721,0.93089915658946,0.10827636765550422,0.38177828799987634,0.10347864449505693,0.014923607988609016,0.16089311439497558,0.3138549135204216,0.4354352039329617,0.49412752608388333,0.08530283858492524,0.3364948130499386,0.3188408045826197,0.8320904005611732,0.12383243382853586,0.9771168414021415
0.39425295374637365,0.8732008582009181,0.2844832808752999,0.23965263034208678,0.9445761463674252,0.29705768130457527,0.5838443003323829,0.6216619805994088,0.3184731978180251,0.7684549001576998,0.6420825434838492,0.26246167952368504,0.09428223371689616,0.8066547054894424,0.7757245901320797,0.7279936751922421,0.44749912627603783,0.9351262795929225,0.08616532909941428,0.36832936895063173,0.1304104868667396,0.17638194132194232,0.15433809963272274,0.2981482567537083,0.18723077393968704,0.4771319630921614,0.04306888470884867,0.3463904161036484,0.14779930725795795,0.8074382856431299,0.13969164617713756,0.9862701048412849
0.03368574849033123,0.8689429290169075,0.46226105865307754,0.23312894587912716,0.16790447953684728,0.3365002210762013,0.16849900016697425,0.8270462065354489,0.1413793103448277,0.7956166363180363,0.711594611529276,0.26106940717839716,0.2593655198828963,0.8601849164747435,0.7476026577472722,0.5141004561970127,0.6033107951380386,0.8475381621942022,0.152498444767684,0.3162148076348091,0.17565598205116648,0.20242360798860895,0.02920231371035627,0.3342735673171489,0.2354818764748046,0.5092346931876363,0.07122485395956649,0.349688950454885,0.23312647278725224,0.816402691067873,0.14603533111657824,0.9931350524206424
0.03368574849033123,0.9093932562650063,0.5511499475419666,0.22497434030042768,0.587665678378965,0.3049461892589005,0.7971454218694437,0.8317796733928049,0.20123181850768018,0.7490536600431738,0.4904198495665537,0.27638440297656364,0.4376039876971917,0.779736873070136,0.5794889694833539,0.55355810796895,0.46365033585319637,0.9139906645756106,0.09722084837745926,0.3145336927536535,0.11413064186813889,0.1581527746552757,0.039330088573517,0.3358442329938202,0.2284710325167106,0.49223913019591425,0.08530283858492524,0.34639041610364846,0.35760743553217206,0.9630317857436198,0.1270042762982562,0.8809956367439595
0.41869116130025674,0.8923615395289648,0.6678166142086333,0.21029605025876857,0.5686829204977244,0.19450707789834767,0.7620414635013241,0.7449994476746133,0.3184731978180251,0.7936765123065836,0.37035355021536154,0.2596771348331093,0.5620879969643187,0.8319193877109624,0.483424004761115,0.7871801528501479,0.6128115066540143,0.952034771606772,0.11380412729452671,0.3431126457332982,0.1987569967030179,0.09304860798860898,0.10845299629695293,0.34998022408386226,0.5051931675685388,0.48657394253200686,0.05010787702152813,0.3562860191573583,0.3113515187377671,0.9764783938807342,0.1270042762982562,0.8718423733048162
0.06333558588559637,0.8987484333049802,0.7678166142086331,0.20540328691154885,0.3607677330589013,0.21028409380699806,0.13719100454879435,0.6976647791010542,0.22881802540423193,0.8577006046845191,0.21237157738484552,0.2596771348331093,0.7921709680635352,0.6009254934683976,0.7441717661500493,0.5831513467979028,0.0009656850251822766,0.7578364832937508,0.16355396404572886,0.3263014969217425,0.21120601398178745,0.10867360798860899,0.04290284867442489,0.33427356731714886,0.4161761356825751,0.5148998808515436,0.014912915458130852,0.3430918817524118,0.08610149806144059,0.9009227451866751,0.12383243382853586,0.8718423733048162
0.07127486883743164,0.7575860192750631,0.7178166142086332,0.23149802476338727,0.08932112093046042,0.10457808721904036,0.059962296138931385,0.2963632609436858,0.18275862068965532,0.7275465042947238,0.3506761737831136,0.5165330401017967,0.69852504291031,0.6705021796561662,0.3705362925000646,0.7339123229580325,0.37461305507491993,0.8433110391907399,0.16355396404572897,0.34815599037676487,0.3200106571633854,0.0904444413219423,0.06256789296118309,0.32799090461046365,0.3390774060202878,0.5111230890756053,0.05714686933420758,0.34639041610364846,0.13165923677003347,0.9098871506114182,0.13017611876797655,0.8787073208841737
0.030484224911524055,0.7320384441710007,0.29559439198641096,0.301627632740203,0.07570724421125659,0.37752046243869236,0.1663927626648871,0.21589432436863545,0.3022164573543888,0.46352384711469913,0.4524165642859658,0.4100425481241983,0.6113862364233211,0.5644840001767267,0.5973068483640733,0.6206361159812432,0.21519111583684847,0.8590380655306,0.02991762332005796,0.3565615647825428,0.1809819807377074,0.07742360798860896,0.08878795201019443,0.3075722508137363,0.8165571198250668,0.45824800421247036,0.08530283858492524,0.3430918817524118,0.1945185447647701,0.834331501917359,0.0889421666616121,0.9725402096825699
0.020468566077965423,0.8582981060568816,0.6277389413469223,0.7747803036481306,0.05755540858565147,0.47033637249218035,0.4605639337897297,0.10424581741720228,0.28054216333526627,0.5469491796071608,0.0467188580572007,0.4253575439223648,0.7148638265194289,0.5935761040394011,0.10257228004454266,0.9162394205357121,0.16768755825697026,0.882287242049643,0.012646125900415193,0.3666482540694762,0.17565598205116648,0.04877777465527571,0.029792819149919225,0.277729602956981,0.6100053509945859,0.401596127573397,0.04306888470884867,0.36783088938668634,0.13953568888095913,0.8829939343371892,0.04295045085066721,0.9588103145238548
0.0316861039715511,0.6986257616564917,0.43773894134692237,0.41891331619368455,0.08932112093046042,0.49382059794075767,0.44371403377303226,0.14416472124757038,0.4137931034482758,0.8984432089250237,0.33875715564925835,0.6564380683663037,0.6271591836266804,0.6761984188873763,0.4051769189195955,0.5594767557347405,0.26316970899252556,0.7493822372868262,0.170322718151229,0.9059557109652903,0.26231614470018894,0.0331527746552757,0.14122807010821709,0.2368922953635264,0.5658163476767634,0.4053729193493353,0.07122485395956649,0.9400379808786257,0.13165923677003347,0.9159686572637189,0.010149895903105093,0.8878725228704939
0.032086730324893425,0.7497209118646164,0.2377777777777778,0.5141591093528947,0.1239629476703994,0.25130433516948913,0.24250287965315337,0.20958303522549424,0.24137931034482757,0.5935121558820231,0.7305524482689382,0.634161710841698,0.7353044092846885,0.596576950581662,0.2699997899890163,0.6206361159812431,0.22230103560024556,0.7028838842487403,0.20348927598536387,0.9126801704899127,0.22568883907470055,0.0331527746552757,0.23299827677975674,0.1882016593867151,0.7678316880637718,0.3808237728057368,0.04306888470884867,0.925194576298061,0.19374421223262397,0.9451029748941339,0.06330627188496415,0.8649893642726355
0.027279214084785303,0.7646236640086529,0.2567055030975222,0.768256619185171,0.16253559837481052,0.7442253686663516,0.3056900047157688,0.0566920557328985,0.3091130090785265,0.41308062281693164,0.6294439856574078,0.6926371493437881,0.5898844530044539,0.9275873312191444,0.20069577972511538,0.5930157597408872,0.28696899134004455,0.7472686757850949,0.321783332260445,0.8588844942929343,0.5838219728302841,0.09565277465527564,0.21988824725525108,0.16150034288330253,0.4784489261338807,0.35627462626213846,0.014912915458130852,0.8971570343125499,0.2417772574303241,0.9226919613322762,0.07472490477595739,0.8169347312171328
0.022471697844677143,0.7962327574099438,0.16440560801358897,0.35055526621239996,0.18461825796488712,0.30021308448630535,0.6203524170352274,0.2805850380858328,0.3943352667835424,0.49650595530939323,0.08657412111112286,0.5910012681377742,0.8176336063227203,0.8275708448242268,0.26727783413607736,0.647927388486539,0.28605080987244214,0.8538788466993957,0.42404688558236087,0.8151755073828896,0.3200106571633854,0.11127777465527565,0.25266332106651523,0.13794035773323254,0.4214135160167737,0.29395756195915784,0.15965409389631954,0.8856121640832217,0.2798457102940645,0.9428618735379481,0.21016257823301582,0.7093838858071984
0.021196574669638486,0.7788756651951151,0.23,0.24128355145782668,0.04537958906401278,0.07415197477065691,0.14111791263984091,0.18433787865292942,0.23325094011300943,0.5238334830922011,0.2148554830495017,0.4094672967491601,0.34707016277564473,0.49355961764448364,0.5571654166765664,0.65976468401812,0.47692010422839304,0.9013092955652237,0.8275733392310021,0.5668748394362119,0.5471946672047958,0.06700694132194228,0.24610830630426242,0.04841241416296666,0.4161761356825751,0.23730568532008461,0.8459558443825658,0.8559253549220924,0.41938139917502365,0.8717884275562604,0.4388524202998522,0.6842124113495542
0.032086730324893425,0.7600403593458555,0.4144444444444445,0.5936552861293233,0.04227968735517665,0.30967929403149563,0.3830496584667386,0.29162979408632994,0.2977835426456109,0.19307055991820715,0.275564366517052,0.32372166271635094,0.5405574069395463,0.7131610334246284,0.24769899460706798,0.49437163031104403,0.44749912627603783,0.46193787305138595,0.06584806097370406,0.5194644982770711,0.4754482391266332,0.048777774655275656,0.42309370488508863,0.05767934165532752,0.29163055477996386,0.2996227496230652,0.4179851117716553,0.5937361832225881,0.1945185447647701,0.7402052449575572,0.21396878919668025,0.5789498817994057
0.019266687017938388,0.7086198336589435,0.05670550309752214,0.08455203223522237,0.043941531866447635,0.5801444032163872,0.4904677710731847,0.7828671825334604,0.1160095608026645,0.5742767073899687,0.4296671601983716,0.19563260694986767,0.2670747835185633,0.7840854159568714,0.13963728800696884,0.16687312060396503,0.35067126205466126,0.619273520007235,0.5931963305364488,0.32630149692174254,0.37590814972089415,0.02674305867805769,0.4558687786963528,0.07354306498970797,0.34004661834938954,0.16573548116605535,0.1512073031211042,0.21774757640542103,0.26416896051854744,0.8141615897116873,0.03552463566086779,0.7871806557663286
0.032086730324893425,0.8281672262900216,0.6733721697641887,0.16789210124953122,0.046817646261577923,0.19450707789834767,0.18506333327054383,0.7797115379618899,0.047044043561285526,0.6074246072071342,0.6912853072057061,0.2568925901425336,0.16105092959653705,0.8066547054894424,0.1887104165596748,0.7457496184896137,0.478360824829374,0.4927578572805869,0.626915664334486,0.08422095403534041,0.25848531698035787,0.13872222534472434,0.9395627638920289,0.20076698480008576,0.8178562542227847,0.57218395405464,0.5059725156801484,0.15507542373192562,0.17884179498925312,0.7110709273271423,0.02791221373353897,0.576649627392443
0.011982168542764557,0.7795264161526892,0.4511499475419666,0.1972486813328494,0.05589356407438048,0.3128346972132257,0.21413414604552974,0.7781337156761047,0.0564042323007839,0.20374124198119645,0.19973301955840425,0.3265062074069267,0.06599041342891282,0.34501374458401113,0.11080641987787744,0.4489953307733163,0.52489869738407,0.557048140629289,0.615860145056441,0.2590569016755197,0.17565598205116648,0.057291666666666664,0.151556796869776,0.6010578431406287,0.26399958153335806,0.5316491202609366,0.9367588452161306,0.02923633823224932,0.15528859310281043,0.8845932382771184,0.16506638593490022,0.5995327859903015
0.06486484718395415,0.42120961373824184,0.38829449690247786,0.29510394827724334,0.07858335860638688,0.6042597093013105,0.39428292514453683,0.32160841751625063,0.04482758620689678,0.4906855832750355,0.2204990281707684,0.3696666501108504,0.10390145261481055,0.6857220797597406,0.19866000219162094,0.6009072900952745,0.6888171987818194,0.7388144297781702,0.34168326696092594,0.29267919929863107,0.11796146958797,0.10867360798860899,0.5352494533562746,0.8091710452995801,0.4092890125002121,0.884401472133566,0.21257756784291928,0.16991882831249036,0.3192279708486928,0.8029560829307584,0.4759069479674935,0.4279090965063635
0.03368574849033123,0.84126638932084,0.24166666666666664,0.33913881840222065,0.046817646261577923,0.8089111338918181,0.10460979593699662,0.2947854386579005,0.06206896551724143,0.9081438289822868,0.23060987443192144,0.39611982467131973,0.066485777676761,0.836267930597698,0.0233300628611152,0.9655614852506336,0.684510650852461,0.6817482692314285,0.16590051044001103,0.28931696953631997,0.46990678570111877,0.24669444132194232,0.17400314391948124,0.8672856753364193,0.24160598862095092,0.8126424283907399,0.5076423773456921,0.18146369854181843,0.2567558291200292,0.7312408395328142,0.5456874823013409,0.5034235198792962
0.2146956627561629,0.7703598068270943,0.3622610586530777,0.3228296072448216,0.10293499764966425,0.6153036204373656,0.16527417124329008,0.34843139637460074,0.2564042323007837,0.41890099485128945,0.060708883467550157,0.4267498162676526,0.127879027701685,0.8058281303905492,0.10911373150410535,0.6443107070444055,0.47836082482937403,0.7578364832937509,0.09956739477174117,0.24897021238858627,0.2531593182938169,0.23627777465527566,0.16089311439497558,0.273017605926967,0.20655176883048093,0.7805396982952651,0.5639543158471277,0.21115050770294785,0.28733499613891705,0.8263246030162886,0.06864237485540191,0.6521640507653756
0.388607562742075,0.7575860192750631,0.031111111111111138,0.33587697617074086,0.7442252606498091,0.28601377016852,0.11696165403639175,0.4052329986628716,0.22881802540423193,0.42666149089709976,0.05438960455432951,0.4170039098506376,0.10390145261481055,0.7074647941934183,0.1609201946221699,0.6502293548101962,0.28605080987244214,0.711338130255665,0.11380412729452671,0.2506513272697419,0.08516499168231273,0.194611107988609,0.4880533470680542,0.19605498777007177,0.2135626127885749,0.744660176423852,0.47244741578229493,0.24248658403969556,0.2256371869423997,0.6716886094394712,0.11748874888909518,0.9107497121947637
0.10832592536594177,0.7213936212109747,0.2789277253197443,0.2934730271615034,0.2957982511717182,0.33334481789447123,0.1933573379377858,0.3642096192324538,0.17019733574905965,0.5741109157674971,0.02144174240431811,0.4002966417071833,0.14053987467336593,0.757473037390877,0.12318038705271891,0.6186632333926463,0.22423240565061,0.6775211462279662,0.19119276224084128,0.218710144527786,0.17565598205116648,0.0904444413219423,0.4244697038742018,0.34998022408386226,0.2135626127885749,0.744660176423852,0.7610461006021524,0.22434464510789426,0.6124338273562374,0.7670984612317863,0.06864237485540191,0.7162368948393791
0.03201348620988182,0.7873915235631358,0.0900388364308555,0.33424605505500093,0.45152691118692684,0.33492251948533625,0.04914554171536754,0.3847213089476627,0.49433526678354245,0.5333683115269926,0.02144174240431811,0.3933352799807441,0.08395623409739925,0.7052905227500506,0.1643510862193928,0.6048530552724684,0.2878871728076469,0.7092245687539337,0.4620529845529429,0.22711571893356386,0.5193062907138369,0.10867360798860899,0.13998206319242915,0.8076003796229088,0.3043943485570109,0.6823431121208714,0.5709933081598072,0.2441358512153138,0.3715070569043939,0.9159686572637189,0.4197653362534434,0.6315692080273031
0.03365261368075701,0.7277805149869904,0.14559439198641097,0.3146750016661221,0.549093027674554,0.3144123988040907,0.06009324148003788,0.3989217095197304,0.7435957676992161,0.5217275674582771,0.0340803002307594,0.4072580034336227,0.09909184316585336,0.7444274087306704,0.11288771226105045,0.6245818811584369,0.16057763849357323,0.7536093602902886,0.6168302544455726,0.20526122547854145,0.25848531698035787,0.124298607988609,0.3903186310738246,0.8390136931563354,0.3667083792668936,0.7106690504404081,0.45133043884425644,0.24743438556655042,0.9975294938131142,0.8957987450580471,0.6820767084993155,0.6498757349055898
0.016025054133693806,0.7299094795789957,0.21781661420863313,0.26411644707818527,0.43193701836375653,0.3743650592569623,0.10208704618067484,0.39103259809080393,0.528818025404232,0.4596435990917939,0.010154652161785124,0.4086502757789105,0.10390145261481055,0.9428072313227187,0.12661127864994173,0.6364191766900181,0.2878871728076469,0.7113381302556651,0.6555245719187299,0.21534791476547485,0.1809819807377074,0.16075694132194238,0.42309370488508863,0.7055071106392722,0.24861683257904496,0.7031154668885317,0.3387065618413855,0.22764317945913087,0.6865651413414202,0.9652728870998055,0.44418852327029007,0.810063814364187
0.020832570373801956,0.7618439484590734,0.07337216976418882,0.31630592278186204,0.16790447953684728,0.3696319544843671,0.07020791673623934,0.3815656643760921,0.39310344827586197,0.5062065753666563,0.018957836739661938,0.4100425481241983,0.04194236618412687,0.9471557742094543,0.09401780847632492,0.6245818811584369,0.18999861644592833,0.7514957987885573,0.6610523315577524,0.22543460405240828,0.1987569967030179,0.19601389201139108,0.06555014762252832,0.6662404687224889,0.2565144083490867,0.7937584695110488,0.26805457551158307,0.28536753060577136,0.6054675069739794,0.6684900015596129,0.21378218245915082,0.7002306223680551
0.03205010826738763,0.7064908690669384,0.11226105865307774,0.33261513393926107,0.12252489047283438,0.39487517993820775,0.14504482073088748,0.34369792951724487,0.40000000000000013,0.5275479394926349,0.09790501725428793,0.6954216940343639,0.06698114192460919,0.7226846942969927,0.06622758653882005,0.7891530354387447,0.15961195346839097,0.7007703227470091,0.6278857737236175,0.2926791992986311,0.19013880714407952,0.7557291666666668,0.4323357215889052,0.2164736415667991,0.2847021913390239,0.5451142150590492,0.22793231932931018,0.27217339320082495,0.5760003096648693,0.37737093539108274,0.5295671149338539,0.34255491493635165
0.02167044513799246,0.7767467006031098,0.19107227468025567,0.8970993873286229,0.12252489047283438,0.886218511844205,0.028083166694495735,0.271118104371121,0.579310344827586,0.4111404988054791,0.05055423130576503,0.642515344913425,0.21791748837538366,0.6987677084199473,0.020253639136034295,0.8570529428778062,0.16768755825697026,0.8759465575444493,0.2365881125501622,0.4355739641968545,0.3200106571633854,0.78125,0.8557246791937753,0.16490418939372306,0.3599449768602617,0.8560755338140295,0.30184173861244445,0.29856166801071776,0.6541326914729028,0.5304992239997685,0.10371924875985507,0.8054871826446153
0.027279214084785303,0.8022942757071722,0.22718338579136674,0.8922066239814034,0.3508608929904633,0.88464081025334,0.021062375020871802,0.219049968940206,0.2770938874731971,0.37427814258787967,0.13022095151297713,0.6118853533170922,0.04830854053454008,0.7226846942969927,0.0027447132777782585,0.8274597040488532,0.22423240565061,0.5908651246569878,0.37761370461457205,0.6413482286714036,0.17565598205116648,0.06510416666666667,0.09534296677244726,0.14308764314475828,0.21444934460052262,0.3449442509343238,0.49356439272033314,0.349688950454885,0.9183016519914502,0.8336897045011025,0.491219539474935,0.5880912066913722
0.032086730324893425,0.7831335943791254,0.26996116356914457,0.8970993873286229,0.3962404820544761,0.6452799506638015,0.04534957896542762,0.22378343579756194,0.3332509401130093,0.41890099485128945,0.06319278913220647,0.6146698980076679,0.10390145261481055,0.7683443946077159,0.05968613507925741,0.8373241169918376,0.16057763849357323,0.5993193706639126,0.2647796867091769,0.4463389024573575,0.11413064186813889,0.02343750000000002,0.48507109240670926,0.1960549877700718,0.2574011401610343,0.48468554664403785,0.03519496156339728,0.36618162221106804,0.28733499613891705,0.933897468113205,0.239660713201415,0.5926678384109438
0.05372055340538009,0.9051353270809959,0.2455167191247001,0.8905757028656633,0.5490930276745543,0.35858804334831185,0.04592071279168352,0.23640601408384435,0.5667490598869906,0.46934421914905694,0.07831525262330392,0.6132776256623801,0.062454450678531837,0.7205104228536249,0.09159342693342967,0.8314054692260471,0.12827521933925604,0.8390839161872774,0.2741091568261786,0.7328008782062666,0.19396963486391067,0.10606944132194232,0.44931376393409994,0.022339363930222574,0.3390774060202878,0.7880932818471414,0.47244741578229493,0.941687248054244,0.5673660347179446,0.8807528329810034,0.2060391830223794,0.6864887886621632
0.02327295055136182,0.9051353270809959,0.35440560801358895,0.8677428072453048,0.6338761896986133,0.35543264016658177,0.11612862952792255,0.2048495683681383,0.789655172413793,0.47322446717196204,0.11623092610262781,0.5854321787566228,0.05792775943245448,0.7096390656367861,0.1025722800445427,0.7801105219225286,0.11970896510129321,0.6732940232245037,0.07573030705460801,0.6453829043861771,0.1987569967030179,0.08523610798860896,0.2854383948777794,0.11595103825983392,0.32408650577499803,0.5016811096357597,0.35758080948411597,0.9284931106492975,0.7071035615800138,0.8000731841583161,0.19284802215899655,0.8260760561090995
0.9069814419095642,0.7533280900910526,0.5649611635691445,0.8008750414999689,0.23514294087723084,0.39960828471080284,0.0950662545070509,0.13700321007937033,0.2492973820215202,0.37039789456497446,0.44230571802481283,0.5394871913621233,0.08395623409739925,0.6857220797597406,0.30842577587791187,0.7228969268532197,0.4136453655319951,0.4069852740063754,0.4897595040173919,0.13819054474154152,0.11413064186813889,0.18820139201139105,0.8630001914689158,0.20076698480008576,0.2293577643286583,0.45447121243653216,0.42022784106696315,0.7421259198044298,0.47212380594313197,0.6380720890966848,0.3204866669511968,0.5185383431010595
0.12015128394519779,0.7384253379470164,0.7105167191247,0.5683056903954593,0.22916692477326442,0.88464081025334,0.13719100454879435,0.0865128969342407,0.9564042323007839,0.440242358977268,0.7266732691197417,0.5394871913621233,0.14181249180070832,0.6204939364587077,0.4549248470793264,0.7406528701505914,0.14442642891641463,0.6542719697089231,0.7393378517192569,0.7243953038004888,0.10880464318159791,0.2128402746552757,0.2664938481039087,0.1552176801766172,0.20743850064242858,0.3883773563576132,0.0782638462722458,0.21774757640542106,0.1631650452137361,0.7709388665279013,0.27011040091073024,0.661317314204519
0.03368574849033123,0.6727528110736423,0.3094444444444444,0.30162763274020293,0.562706904393758,0.6358137411186112,0.17931575459053795,0.11964716493573203,0.4539405952854234,0.4227812428741946,0.3304544812608075,0.4413503334562522,0.05637119453099842,0.5530915217143066,0.12934461321530033,0.8235139388716596,0.22423240565061,0.7850634129700087,0.2974611898487461,0.0795138323681048,0.10347864449505693,0.11268055867805771,0.37137408429995394,0.5889996287517492,0.13025729046298723,0.623170643029806,0.13290592310813762,0.24248658403969556,0.15528859310281043,0.4578264740781516,0.14082980565558306,0.35216584154745223
0.8541720073833862,0.6131418024974967,0.804405608013589,0.11407170443011454,0.7359802650926418,0.8657083911629596,0.17931575459053795,0.24429512551277083,0.1620689655172415,0.11294343824521488,0.2028050472137506,0.22626259854620065,0.5706460152086251,0.37697553480151735,0.47656222156666933,0.6245818811584369,0.46143394445735264,0.8780601190461806,0.5283861002212128,0.19013119154814134,0.07750333624265049,0.20122222534472434,0.15243659124070952,0.7730457347361394,0.15918739810731097,0.6049188807141379,0.7748620220245034,0.18641150006867332,0.13165923677003347,0.7978320828021304,0.5393437973619003,0.8398059512678144
0.9410713040011693,0.38161087232694524,0.45773894134692233,0.16952302236527111,0.2027700935904921,0.1329767158546111,0.010816754423563849,0.7497329145319691,0.15295595643871482,0.5182071234589887,0.8802317467110032,0.14968761955536825,0.5169620288193683,0.6892440475475828,0.45254598038610955,0.7575869140211949,0.44648593769327566,0.7113381302556651,0.2630536375481336,0.18676896178583022,0.18630797942424837,0.24669444132194232,0.09898072291001762,0.8625736783064053,0.331097349733092,0.6609385607891881,0.12881355932203387,0.23259098098598574,0.21027144898662148,0.80743828564313,0.11323477616901613,0.8123461609503844
0.5044252009155186,0.8029450266647463,0.4599611635691445,0.2086651291430287,0.3380779385268948,0.09986851070175706,0.46168252521132663,0.6298184208122862,0.13916285299043915,0.8227783724783725,0.4884364540913235,0.18867124522342835,0.7164193618496512,0.3211830256638734,0.15918199139871922,0.11600549620949546,0.39952053312036084,0.8167668354959764,0.23161312887504198,0.254013557032053,0.13902867642567807,0.046173607988608985,0.15732035429406785,0.3703988778805895,0.6028706537556775,0.3071763331749416,0.12753679246100197,0.25073291991778707,0.2567558291200292,0.7514107517384859,0.16823822840462058,0.8420942671276003
0.03762225515667466,0.6958460461069124,0.049961163569144554,0.23965263034208678,0.2799153949993138,0.2544597383512192,0.6286464217024694,0.5885277125979175,0.3310344827586206,0.7838101006268489,0.26924508760383137,0.19841715164044338,0.12356478250057604,0.7775626016267682,0.20895267698328943,0.1128488840677405,0.7724078462488204,0.8125397124925141,0.29469731002923477,0.3565615647825428,0.24783331960727586,0.005909725344724337,0.141948567621105,0.2714469402502957,0.26882455928178645,0.8995086392373188,0.2511609939611524,0.30021093518633607,0.1166806650803284,0.6460789879977553,0.08640469268583582,0.8718423733048162
0.07768489049090917,0.8391374247288348,0.03218338579136683,0.24454539368930647,0.19369417577768955,0.6342360395277462,0.45312662986187124,0.35474268551774196,0.18497507804404426,0.5935121558820231,0.6989560537028349,0.22626259854620065,0.3951662572652166,0.9667242171997642,0.6137978854555822,0.4332122700645414,0.45460904603943497,0.736700868276439,0.152498444767684,0.35992379454485396,0.24783331960727586,0.06580555867805767,0.18055815868173408,0.2887242626936803,0.5547434045013743,0.5545561944988948,0.23074791625438196,0.3282484771718472,0.19374421223262397,0.847136312638217,0.09401711461316464,0.9290562390730505
0.017664181604569004,0.8086811694831878,0.0900388364308555,0.22171249806894788,0.09075917812802556,0.3443887290305265,0.39428292514453694,0.34527575180303016,0.2724137931034481,0.7742752721920576,0.5093776863062156,0.22904714323677638,0.37882747365609765,0.5007778468860512,0.13460031789622143,0.5910428771522903,0.25556913977974505,0.7684042908024067,0.16908172368475147,0.3263014969217425,0.46436533227560434,0.05278472534472438,0.22644326201750392,0.2981482567537083,0.4084435209468415,0.4034845234613662,0.18384873096243745,0.3200021412937556,0.15567575936888364,0.8957987450580471,0.12383243382853586,0.9908467365608566
0.0228723241980195,0.9242960084090425,0.16781661420863322,0.22334341918468778,0.18295641345361627,0.2576151415329493,0.6575626129054342,0.3563205078035273,0.24137931034482757,0.7762153962035101,0.5472933597855395,0.22904714323677638,0.5366253587051335,0.5801387545689747,0.13460031789622143,0.8807275339409686,0.16057763849357323,0.9435805255998471,0.10827636765550422,0.37841605823756513,0.8327325661324275,0.035756941321942314,0.13467305534596424,0.34055623002383417,0.59468452868068,0.49412752608388333,0.06418586164688704,0.34144261457679353,0.2260243532084728,0.8119204883555015,0.1270042762982562,0.9771168414021415
0.027279214084785303,0.8795877519769335,0.345594391986411,0.23802170922634688,0.1347007099944732,0.32072320516755093,0.27492946669293006,0.8128458059633812,0.2770938874731971,0.8033771323638466,0.6294439856574079,0.2708153135954122,0.5690189781492576,0.9471557742094543,0.0415251670388158,0.5594767557347405,0.1833637322583301,0.93089915658946,0.08616532909941428,0.38177828799987634,0.3200106571633854,0.16856944132194238,0.19366818820623974,0.3075722508137363,0.7430875329175577,0.49223913019591425,0.06418586164688704,0.3381440802255569,0.19374421223262397,0.8051971842869441,0.1650663859349003,0.9610986303836405
0.02647796137810061,0.89449050412097,0.506705503097522,0.2347598669948671,0.13757682438960323,0.37120965607523215,0.49525137990361484,0.8317796733928049,0.21847319781802502,0.7781555202149628,0.6673596591367317,0.2555003177972457,0.7259681085896541,0.864533459361479,0.751033549344495,0.5436936950259655,0.1586462684432087,0.9351262795929225,0.10274860801648174,0.3330259564463648,0.1987569967030179,0.20242360798860895,0.02622005904901133,0.30443091946039363,0.8244546955951085,0.4676899836523158,0.11345880783564291,0.34144261457679353,0.17876564054291885,0.8051971842869442,0.11431690641937482,0.9862701048412849
0.03846012992086516,0.9115222208570115,0.6011499475419666,0.22497434030042768,0.23968089978363225,0.30967929403149563,0.7409790884804524,0.7734002488187487,0.3184731978180251,0.7568141560889843,0.43354633934756787,0.2568925901425336,0.9200499957652202,0.9014960738987312,0.5486109451083485,0.6107717030382589,0.16865324328215253,0.8590380655306,0.05852653090430184,0.31789592251596466,0.560182321330999,0.10867360798860899,0.013110029524505665,0.33270290164047756,0.4003809841424917,0.4903507343079451,0.021951907770810308,0.34803968327926676,0.22525002067632655,0.9361385694693907,0.11748874888909518,0.8855722684635313
0.035291741151632194,0.907264291673001,0.6622610586530777,0.21518881360598827,0.21184601140329468,0.2797029638050598,0.1161286295279227,0.7229099356736189,0.5322663012663007,0.8227783724783725,0.23764869303772812,0.24993122841609425,0.8889289934484385,0.8327459628098557,0.6069361022611365,0.636419176690018,0.397684170185156,0.8348567931838152,0.16908172368475147,0.32966372668405364,0.5698239209000614,0.10086110798860898,0.11500801105920576,0.3625455494972329,0.26882455928178645,0.48468554664403785,0.05714686933420758,0.36123382068421317,0.1945185447647701,0.96303178574362,0.11748874888909518,0.9382095025121938
0.02006793972462308,0.7959073819311565,0.6900388364308555,0.21681973472172816,0.09529713703442672,0.16768615085364197,0.07020791673623919,0.6043059354557705,0.325369749542163,0.912024077005192,0.11311509254664943,0.2972684881558815,0.8931022943337245,0.45959784964949263,0.2343298960903186,0.49437163031104403,0.38278366697865907,0.7388144297781704,0.10827636765550422,0.3397504159709871,0.56550832001754,0.09565277465527564,0.10845299629695293,0.3169962448737643,0.5781264986094633,0.48279715075606866,0.04306888470884867,0.35628601915735825,0.28733499613891705,0.9428618735379481,0.10797322147993414,0.9908467365608566
0.019266687017938388,0.7980363465231618,0.5622610586530776,0.2478072359207863,0.11034907095119557,0.17557465880796716,0.1933573379377858,0.34369792951724487,0.22068965517241376,0.5527695516415185,0.4549442758512542,0.40168891405247126,0.6413050937706721,0.7536456157497227,0.5973068483640733,0.6028801726838714,0.3270144903798819,0.9330127180911911,0.05852653090430184,0.35992379454485396,0.46085768666423343,0.08784027465527564,0.013110029524505665,0.3075722508137363,0.1938292153120108,0.49790431785982164,0.014912915458130852,0.3595845535085949,0.1399228551470323,0.8074382856431299,0.1048013790102138,0.9931350524206424
0.024074203258046534,0.8923615395289648,0.17888888888888885,0.631166471791341,0.08932112093046042,0.6953166193495351,0.11022642927589561,0.12438063179308795,0.15295595643871482,0.7779897285924913,0.08910183267641111,0.3863739182543047,0.44972677529778404,0.666674758015012,0.3029363493223554,0.9379411290102776,0.4535958574566728,0.89496861106003,0.007806584763968009,0.37001048383178736,0.29840481347824377,0.06179860798860894,0.049457863436677574,0.2934362597236943,0.24160598862095092,0.44691762888465564,0.0782638462722458,0.36123382068421317,0.17876564054291885,0.8986816438304894,0.07244858581906632,0.9588103145238548
0.03769549927168627,0.851911212280866,0.679405608013589,0.5803745066519345,0.05672448633001598,0.4786981909237651,0.6426880050497173,0.09903900387411077,0.09778354264561152,0.4286016149085524,0.025277115652882588,0.7065598727966668,0.16076801139365718,0.6444109223357529,0.3166599157112467,0.5870971119750966,0.42327231191029985,0.907649980070417,0.08574799567418495,0.4036327814548987,0.18630797942424837,0.040965274655275705,0.05601287819893041,0.258881614836925,0.6911867337509151,0.3751585851418295,0.10641981552296345,0.97467259156661,0.24926654327517664,0.8890754409894898,0.03425589867297965,0.9221972607672813
0.03205010826738763,0.7326891951285748,0.1421833857913668,0.4719182524552312,0.043941531866447635,0.2907468749411151,0.16077612932598795,0.09892945731873841,0.06330078402492184,0.9818685414174855,0.4651427339136713,0.6077085362812285,0.10658969032778591,0.7579941586364582,0.3029363493223554,0.7792886224957605,0.4535958574566728,0.6859753922348909,0.176956029718056,0.9076368258464459,0.16266832792496322,0.020131941321942355,0.17400314391948124,0.22275630427348442,0.5451342917478446,0.4053729193493353,0.08530283858492524,0.9334409121761527,0.10146723601721877,0.8897172384057465,0.010914841906491765,0.8764309435715647
0.02167044513799246,0.8753298227929232,0.1455555555555555,0.6328901665787593,0.05672448633001598,0.32230090675841594,0.4390850465146234,0.1874935232245,0.05985250816285287,0.5857516598362127,0.9138115367523367,0.6299848938058343,0.04830854053454008,0.7552987659475092,0.21441934611400662,0.6344462941014212,0.25556913977974505,0.6627262157158479,0.226153090505356,0.9076368258464459,0.2531593182938169,0.061798607988609,0.25266332106651523,0.1834896623567011,0.3885451624359693,0.4091497111252735,0.021951907770810308,0.9120004388931146,0.3808496255988759,0.9473440762503196,0.041737743090865836,0.8604127325530637
0.03368574849033123,0.7582367702326372,0.05114994754196658,0.7715184614166508,0.12108683327526937,0.8404651657091189,0.31973158806301666,0.09203527493448926,0.047044043561285526,0.4383022349658154,0.493535683122532,0.6995985110702274,0.07101246892283831,0.9710727600864997,0.18422750005844582,0.6068259378610652,0.5890597278640752,0.7324737452729767,0.25766132044778417,0.8857823323914236,0.21120601398178745,0.1347152746552757,0.16089311439497558,0.17406566829667314,0.20084005927010481,0.3751585851418295,0.02899090008348976,0.8889106984344585,0.28733499613891705,0.8980398464142327,0.06964995682440484,0.8192230470769187
0.824926283589395,0.8881036103449543,0.038850052458033496,0.30652039608742265,0.1747114178964492,0.20712869062526795,0.900482004812822,0.29162979408632994,0.4655172413793105,0.7277122959171952,0.0038353732485644776,0.48797311458647247,0.09909184316585336,0.6253636005910244,0.2638469425388545,0.5277788388409901,0.45460904603943497,0.9330127180911911,0.477666154080879,0.8218999669075119,0.13902867642567807,0.09565277465527564,0.21988824725525108,0.12066303528984788,0.4224652088630295,0.25807804008774476,0.2701662732053869,0.8790150953807487,0.4040918156655797,0.9047631504827901,0.22538742208767343,0.7070955699474125
0.4226241807186685,0.9157801500410219,0.7332944969024778,0.34892434509666,0.4069782443785495,0.19766248108007775,0.1366198707225387,0.17960441179557352,0.3758620689655173,0.31529837263972077,0.36146275383622073,0.4288198823486614,0.08466301481898184,0.5378716216107324,0.5087898451557246,0.7584088134479631,0.12730953431407374,0.8991957340634925,0.789431797721747,0.4984534637731802,0.07217733755610951,0.07481944132194229,0.27232836535327376,0.03317695709925475,0.20743850064242858,0.24391507092797646,0.8185037743631159,0.8559253549220924,0.4271055423932809,0.8186437924240587,0.42870252439674716,0.6865007272093401
0.20315418320207493,0.5446895600745435,0.30944444444444447,0.2755328948883646,0.6157243540730082,0.5206415249854633,0.6687958795832324,0.3500092186603861,0.22881802540423193,0.23497723856558322,0.23132941412450747,0.3487825649315325,0.10524557147129823,0.7775626016267683,0.12761778870426926,0.3503512013434732,0.2878871728076469,0.390076781992526,0.18566500260181892,0.33806930108983146,0.4030554468315503,0.03906249999999998,0.47553382298311125,0.06239133868534152,0.40143267698874746,0.2560008046109788,0.17738260627952218,0.5755942442907869,0.4272578512859493,0.8141615897116872,0.1367064104449466,0.6178512514157649
0.04964104575694502,0.7834589698579125,0.15114994754196653,0.12222631000881404,0.33724701627125925,0.6322085557149335,0.12145969595369406,0.7828671825334604,0.7022164573543888,0.6233336241010454,0.4296671601983716,0.1900635175687162,0.08430962445819054,0.901496073898731,0.3050176417055284,0.285048787660917,0.2565348248049273,0.6087057124985791,0.68937934825544,0.2035801105973859,0.21120601398178745,0.02674305867805769,0.4099836753605831,0.10495637852313455,0.4354352039329617,0.18291988374657425,0.007038992312679454,0.21444904205418447,0.36370675923980245,0.8673062248438888,0.05233540075038556,0.8306586571022595
0.04727390969439675,0.8029450266647463,0.7455943919864109,0.1532138112078721,0.42513008000415464,0.19766248108007775,0.19699867911570446,0.7686667819613927,0.8470440435612852,0.5703964593670634,0.35257195745707975,0.28473803704829087,0.066485777676761,0.7805634481690292,0.30844853330275124,0.7536411488440011,0.2940314075458617,0.48007648827019983,0.5826935872223061,0.13465440047000754,0.16266832792496322,0.10486805867805765,0.151556796869776,0.29657759107703696,0.2574011401610343,0.6238028395938291,0.7868283089560584,0.13528421762450601,0.6494994843488289,0.695383217833842,0.059444031693212954,0.5789379432522289
0.013657918071145548,0.7813300052659073,0.3455943919864109,0.23802170922634688,0.30177426727568474,0.363321148120907,0.06669752089942738,0.5853720680263469,0.2931034482758621,0.2520503298663661,0.08598599912043274,0.32789847975221453,0.12738366345383678,0.4704692068663314,0.09023244900696017,0.4766156870136723,0.1919299864962928,0.5528210176258267,0.529074318723788,0.24392686774511957,0.22185801135486946,0.12169444132194233,0.151556796869776,0.6238324954523631,0.2968679351141626,0.6294680272577363,0.7811971151059148,0.0577686603704459,0.28733499613891705,0.8605829207753315,0.2887682422539934,0.5789379432522289
0.019667313371280734,0.4680468347623563,0.379405608013589,0.2934730271615035,0.16109754117724537,0.8672860927538246,0.24754837916579678,0.34843139637460085,0.6137931034482758,0.7566483644665127,0.29696230302073817,0.3766280118372897,0.04830854053454008,0.8218746055930168,0.19866000219162086,0.6107717030382589,0.12730953431407374,0.9097635415721481,0.29082787828191914,0.2758680504870754,0.26231614470018894,0.06179860798860894,0.39038362711048713,0.8421550245096782,0.2758354032398805,0.8485219502621529,0.2308789478558859,0.12538861457079623,0.5915678856017577,0.7133120286833281,0.4600477356188918,0.36498041036225287
0.027279214084785303,0.8689429290169075,0.20670550309752214,0.31793684389760196,0.3040432467288854,0.8657083911629596,0.11345125819957978,0.3200305952304653,0.41157664609388706,0.560530047687329,0.1358206907336118,0.37941255652786543,0.06599041342891282,0.844965016371169,0.013723566388891294,0.6186632333926463,0.12827521933925604,0.6796347077296973,0.170322718151229,0.2876358546551644,0.10880464318159791,0.19200694132194235,0.23955329154200958,0.621983607961847,0.5533823434632493,0.8579639297019985,0.5569153235344483,0.16002322525878054,0.7696518577550117,0.8404130085696597,0.5139690576041375,0.4782520454216519
0.027279214084785303,0.7107487982509488,0.3122610586530777,0.3081513172031625,0.2745465138372771,0.6231921283916909,0.028083166694495735,0.3878769535192333,0.7529559564387145,0.4344219869429102,0.012638557826441294,0.41004254812419844,0.2763406120556864,0.7661701231643482,0.13004217024716455,0.6226089985698401,0.6840668430238317,0.7367008682764391,0.06584806097370406,0.24056463798280842,0.12179229730780113,0.14513194132194235,0.14784808090713256,0.22432696995015575,0.2776501071223529,0.7918700736230797,0.5569153235344483,0.21279977487856616,0.4661469687530767,0.738921650125044,0.7621937454737973,0.7208135265589508
0.03569236750497454,0.7043619044749332,0.05114994754196658,0.3293532917077812,0.4492579317337262,0.29705768130457527,0.01783754609718778,0.6374402034572618,0.39655172413793094,0.4887454592635829,0.029112488901447065,0.41143482046948626,0.14117618323703712,0.7205104228536249,0.178074652608284,0.6403649418672118,0.30403838238480557,0.7092245687539337,0.05852653090430184,0.25233244215089745,0.13190565783344943,0.12690277465527566,0.5116514002121645,0.20233765047675709,0.33810819369118605,0.7427717805358829,0.4865254004076537,0.22104611075665767,0.9274919117932637,0.794949184029688,0.11748874888909518,0.9610986303836405
0.029682972204839352,0.7724887714190994,0.25670550309752205,0.30488947497168273,0.5385790526641864,0.3396556242579314,0.13017021287517042,0.34527575180303016,0.49433526678354245,0.5411288075728029,0.031596394566103234,0.4086502757789105,0.06599041342891282,0.7726929374944514,0.14376573663605585,0.6245818811584369,0.18432941728351232,0.6838618307331598,0.24647035863106617,0.23047794869587498,0.11413064186813889,0.05398610798860899,0.3110679484872279,0.5984236228117771,0.39547352587690926,0.7201110298802536,0.6836171851626784,0.23094171381036743,0.8085707975972326,0.742446346313743,0.40707796637456206,0.6910654203817349
0.06650397465482935,0.7852625589711307,0.10114994754196663,0.3228296072448216,0.9513830847270272,0.3270340115310111,0.024858337770811718,0.3768321975187362,0.46674905988699056,0.5197874434468245,0.06567669479686264,0.3947275523260319,0.066485777676761,0.7183361514102571,0.1060259290666048,0.6009072900952745,0.12634384928889147,0.6902025152383532,0.4509974652748979,0.242245752863964,0.25848531698035787,0.07481944132194229,0.07836492442725251,0.8123123766529228,0.40739182810058566,0.7106690504404081,0.5498763312217688,0.24743438556655042,0.28733499613891705,0.9098871506114182,0.4134216513140027,0.6658939459240908
0.02327295055136182,0.712877762842954,0.1789277253197442,0.2706401315411449,0.15058356616687768,0.29705768130457527,0.01726641227093189,0.8728030528232227,0.7470440435612851,0.5333683115269926,0.025277115652882588,0.3989043693618955,0.09477759796474439,0.86753430590374,0.14033484503883303,0.6245818811584369,0.23230801043918933,0.7155652532591273,0.6057747351675276,0.21030457012200818,0.07750333624265049,0.12950694132194235,0.5017538820321226,0.861003012629734,0.1048121834260471,0.7031154668885317,0.4442914465315771,0.24743438556655042,0.3993062996488373,0.8388137046297306,0.6630456536809936,0.7574265803155242
0.9310190231101049,0.7064908690669384,0.20114994754196647,0.26737828930966506,0.3766505892313058,0.36332114812090693,0.10910783785429862,0.39576606494815986,0.5495076805766456,0.4674040951376043,0.060708883467550157,0.4142193651600619,0.08430962445819054,0.9428072313227187,0.16092019462216997,0.636419176690018,0.1833637322583301,0.7092245687539338,0.6389412930016625,0.23047794869587498,0.1987569967030179,0.16336110798860898,0.35754355726256043,0.7165017703759715,0.15830066629536327,0.7050038627765006,0.3175895849033471,0.23094171381036743,0.22525002067632655,0.825367096492616,0.4219856259822477,0.8535418157001179
0.2166152286743777,0.7959073819311566,0.07337216976418882,0.3228296072448216,0.23741192033043135,0.364898849711772,0.07371831257305131,0.37367655294716556,0.46674905988699056,0.5139670714124667,0.037915673479323876,0.41561163750534974,0.08395623409739925,0.8631857630170044,0.06485522989993092,0.6245818811584369,0.18999861644592833,0.845424600692471,0.6831633701138424,0.242245752863964,0.21120601398178745,0.125701392011391,0.10589598642871441,0.7023657792859296,0.1048121834260471,0.8032004489508944,0.20272297860516805,0.25732998862026024,0.23351363905332534,0.7581340558070432,0.20743849751971016,0.7940515726192744
0.03368574849033123,0.7511991254990475,0.0622610586530777,0.36197171402257916,0.5959106739361321,0.40118598630166796,0.07694314149673533,0.31687495065889476,0.3736456116111286,0.5197874434468245,0.06951206804542698,0.6773221535456215,0.16317333090375274,0.7031162513066828,0.07823570712909993,0.9261038334786963,0.35154193996468375,0.759950044795482,0.6002469755285051,0.3061281183478757,0.08516499168231273,0.8105972253447244,0.21864224033946306,0.23375096401018375,0.26222611790946276,0.4752435672041923,0.22793231932931018,0.30021093518633607,0.14818647352403116,0.5541938323941391,0.5078399940162697,0.4416389916650785
0.8750045777571881,0.7575860192750631,0.1155167191247001,0.8922066239814034,0.19369417577768955,0.8751746007081496,0.059962296138931385,0.2569177037990533,0.0953199056302507,0.37039789456497446,0.18709446173196295,0.6369462555322737,0.44088532406498077,0.7139876085235216,0.06759994317770918,0.8452156473462249,0.684510650852461,0.8273346430046323,0.25151306357552294,0.9143612853710682,0.12657965914690847,0.765625,0.5673040296546509,0.21608768578848547,0.20743850064242858,0.7496931675237363,0.2511609939611524,0.32824847717184713,0.38092578004521016,0.6223843796033844,0.22665615907556158,0.9336388400662107
0.5556321300283272,0.800165311115167,0.24996116356914455,0.8889447817499233,0.43647497727015777,0.8783300038898798,0.09098472484398319,0.22536125808334723,0.1724137931034482,0.3606972745077115,0.16181734607908035,0.6258080767699709,0.5310374668054485,0.7031162513066828,0.041502409613976485,0.8491614125234189,0.2080811960734514,0.5485938946223643,0.312938916838009,0.6638751680788882,0.2714729711065611,0.06440277465527561,0.09534296677244726,0.15172630436645057,0.4092890125002121,0.45069442066059384,0.3739015234047827,0.3595845535085948,0.14031002141310547,0.820243096363988,0.45293540086541056,0.6132626811490164
0.44793688509424795,0.7448122317230319,0.2988500524580335,0.8856829395184436,0.18605631516245227,0.8578198832086342,0.08536809150508405,0.22062779122599133,0.23571457712836985,0.40920037479402643,0.04039957914398005,0.6118853533170922,0.765010820587071,0.7183361514102572,0.06654791827370306,0.8314054692260471,0.5515319173759712,0.5655023866362137,0.19347158736578687,0.5139197206798115,0.3474811363825018,0.21424305867805768,0.47982708059690693,0.26045228051359637,0.44244604789105574,0.4318104617809027,0.07742891543947385,0.33484554587432036,0.24887937700910356,0.8711466301400038,0.2203124741361209,0.5469015212152271
0.029682972204839366,0.89449050412097,0.2721833857913668,0.861219122782345,0.3471538563396975,0.3759427608478273,0.0950662545070509,0.21589432436863543,0.22881802540423193,0.45382322705743616,0.02144174240431811,0.5979626298642136,0.5876211073814152,0.7183361514102572,0.0833592871000949,0.8136495259286753,0.44749912627603783,0.7430415527816326,0.3183312339383585,0.5722544070559098,0.23101483776124157,0.13802083333333334,0.40998367536058294,0.02940735947524357,0.5337108726270923,0.7522137599757285,0.23312167715119364,0.6663039389497933,0.1166806650803284,0.8074382856431299,0.24219818717719124,0.6155509970088022
0.058855451883818966,0.8494568722100737,0.4599611635691445,0.8481717538564261,0.25722560046730747,0.35858804334831185,0.13017021287517042,0.18433787865292942,0.22881802540423193,0.40920037479402643,0.16425744584310464,0.572901727649032,0.551973413818556,0.6878963512031083,0.196578709808448,0.7663003438023506,0.5415249425370274,0.5950922476604502,0.7163299279479772,0.3648019292107587,0.19013880714407952,0.8489583333333333,0.12651178491147952,0.14893501746993187,0.6524208906885129,0.556444590386864,0.42361630562179886,0.5640493740614587,0.12416995092518093,0.7783039680127151,0.2215812111240091,0.7963339192054719
0.05291930069869541,0.7405543025390214,0.6905167191247,0.7927204359212695,0.20193917133485675,0.39487517993820775,0.10362214985650628,0.11964716493573203,0.3689655172413794,0.3762182665993323,0.6660081915528235,0.5353103743262597,0.39750007504616675,0.6618050938826952,0.39008099589181505,0.732761339796204,0.34980058414463877,0.7355194026024497,0.16520773666379276,0.25132667473275777,0.3200106571633854,0.16145833333333337,0.6650387456488807,0.16307100855997383,0.5064923019662567,0.3978193357974588,0.0851718069834214,0.6761552327796977,0.22525002067632655,0.7187517379193722,0.3400215127540203,0.530895248743903
0.005645391004298632,0.6873301877388915,0.699405608013589,0.6149500343056205,0.20110824907922112,0.39645288152907276,0.04914554171536754,0.0833572523626701,0.15985250816285296,0.4984460793208459,0.8846552419502577,0.5715094553037441,0.5422837227627302,0.6596308224393274,0.4285069817807106,0.7702461089795444,0.22423240565061,0.7092245687539337,0.7538205819734959,0.7260764186816445,0.26614697242002006,0.14252777465527564,0.25076181267450187,0.2321802983335124,0.644110912332701,0.52245346440342,0.11345880783564306,0.18476223289305502,0.17876564054291885,0.6745715082119136,0.13290019948128218,0.5148650991782253
0.024074203258046534,0.6408183421935643,0.26777777777777784,0.1907249968698898,0.11117999320683106,0.3901420751656126,0.15825337956966615,0.13700321007937033,0.2770938874731971,0.4790448392063199,0.3835364241318609,0.45666532925441866,0.2614164194609666,0.5422201644974678,0.10943406323898831,0.860998708055,0.22423240565061,0.8505838195236753,0.250475232917055,0.10103210284689614,0.11413064186813889,0.06059722534472433,0.39300563301538827,0.7824697287961674,0.5451342917478446,0.7144458422163463,0.36167317327021975,0.2523821870934053,0.1631650452137361,0.4152455483106221,0.19411675914688473,0.4311127387100636
0.03288798303157812,0.6684948818896318,0.8360722746802556,0.12548815224029383,0.19740121242845535,0.624769829982556,0.17551979184059813,0.2632289929421945,0.2999999999999998,0.12477819471507574,0.16177354017844847,0.19563260694986767,0.9104307768673057,0.3943697063484595,0.4868548963583378,0.5752598164435154,0.0959571863113541,0.8264025471768904,0.5228583405821904,0.13465440047000748,0.4754482391266332,0.19861805867805768,0.23175226986396874,0.7950350542095381,0.44244604789105574,0.6898966956727478,0.7136227889041922,0.21115050770294785,0.19374421223262397,0.8375301097972173,0.6281553865140697,0.8146344768101702
0.013657918071145548,0.4097132049414139,0.36329449690247784,0.15158289009213222,0.23453580593530107,0.14244292539980136,0.010816754423563849,0.6724196225284893,0.44704404356128524,0.5438167604101628,0.8416841453403573,0.1441185301742168,0.7115392802427825,0.6218416328031822,0.5897816442750224,0.7575869140211949,0.1833637322583301,0.8970821725617611,0.052998771265279354,0.30780923322903125,0.7207564716540231,0.22325694132194232,0.12520078195902895,0.6125596139018191,0.6358628606172962,0.3562746262621384,0.14007594702232098,0.22599391228351257,0.22563718694239965,0.7760628666565293,0.17178328434939974,0.8237877402493136
0.029682972204839352,0.8217803325140062,0.4377389413469223,0.236390788110607,0.07714530140882173,0.04683420899337989,0.3521581751027933,0.6282405985265009,0.5529559564387145,0.8382993645699933,0.39617498195830225,0.1914557899140041,0.5122655866515629,0.32292244281856763,0.22128112930845228,0.11857024357467139,0.3976841701851561,0.8907414880565676,0.25931964833949095,0.28259251001169766,0.33454734594104185,0.05538889201139105,0.21333323249299824,0.32484957325712094,0.6606070157635106,0.34872104271026205,0.10206538853385194,0.3249499428206105,0.3038622328929146,0.6415967852853837,0.13651980370741723,0.9199029756339071
0.027279214084785303,0.7086198336589435,0.03500000000000003,0.26411644707818527,0.03320376954237409,0.2891691733502501,0.5163137549244866,0.5932611794552733,0.308128370231818,0.9585870532800543,0.2629258086906107,0.20259396867630697,0.5507712688491253,0.7362514442027805,0.20345187171531326,0.12725092696449758,0.2878871728076469,0.8780601190461806,0.15809392567604308,0.3885027475244986,0.9362112106274845,0.026041666666666692,0.10189798153470009,0.21019097886011376,0.39547352587690926,0.9108390145651336,0.1849944662219655,0.28371826343015305,0.2567558291200292,0.6796955083405417,0.1492071735862986,0.9496570510847114
0.016025054133693806,0.8604270706488868,0.08,0.24617631480504637,0.08932112093046042,0.8388874641182539,0.45312662986187124,0.33738664037410365,0.21847319781802502,0.5760510397789497,0.711594611529276,0.24993122841609425,0.4646787449271748,0.9210645168890409,0.5863507526777996,0.4134834441785727,0.42235413044269754,0.8801736805479119,0.22435932007497622,0.3548804499013872,0.3307703819059541,0.11528472534472432,0.2854383948777794,0.30914291649040765,0.3320665620621938,0.45824800421247025,0.1386681485597851,0.34474114892803015,0.3192279708486928,0.9182097586199047,0.07371732280695449,0.9702518938227841
0.029682972204839352,0.8859746457529492,0.09559439198641106,0.2347598669948671,0.07858335860638688,0.3743650592569623,0.24754837916579678,0.323186239802036,0.1160095608026645,0.7839758922493205,0.48410057065333306,0.2318316879273521,0.21282496072354665,0.5842698703113735,0.7414156741598514,0.7141834970720639,0.5410499069612287,0.7409279912799015,0.08616532909941428,0.36328602430716506,0.22185801135486946,0.05208333333333332,0.12156302582145859,0.3122842478437503,0.5394225821874684,0.3732701892538604,0.19792671558779637,0.3216514084693739,0.26455612678462054,0.8477781100544737,0.11431690641937482,0.9725402096825699
0.0316861039715511,0.8540401768728713,0.1733721697641888,0.2347598669948671,0.046817646261577923,0.27339215744159967,0.609119150357429,0.3578983300893126,0.09310344827586195,0.7335326679515529,0.5093776863062156,0.24018532199907924,0.04753025808381205,0.6231893291476566,0.13460031789622143,0.8136495259286753,0.6318129296859655,0.9224449105825353,0.08063756946039179,0.37001048383178736,0.2531593182938169,0.1503402746552757,0.14778308487046993,0.315425579197093,0.7139308026086852,0.5167882767395128,0.09234183089760455,0.35793528633297655,0.17884179498925312,0.9495851776065053,0.1492071735862986,0.9679635779629981
0.029609728089827748,0.8795877519769335,0.4178166142086332,0.24128355145782668,0.07260734250242032,0.35385493857571676,0.278439862529742,0.8317796733928049,0.06330078402492184,0.7839758922493205,0.7179138904424969,0.26942304125012434,0.16105092959653705,0.8718828487904755,0.0415251670388158,0.5298835169057876,0.49307131380555164,0.918217787579073,0.10827636765550422,0.371691598712943,0.18630797942424837,0.21284027465527564,0.05601287819893041,0.3075722508137363,0.7059713001982364,0.49412752608388344,0.02899090008348976,0.3397933474011752,0.23312647278725224,0.7469285490261144,0.1270042762982562,0.9816934731217131
0.02327295055136182,0.9051353270809959,0.4955943919864109,0.23965263034208678,0.04537958906401278,0.35385493857571676,0.4039810881465037,0.801801049962884,0.047044043561285526,0.7762153962035101,0.7052753326160556,0.2568925901425336,0.06599041342891282,0.8797533594650534,0.7407408745528264,0.5002902780768347,0.7249042886689423,0.8644466542080516,0.1193318869335492,0.34647487549560935,0.33454734594104185,0.139923607988609,0.013110029524505665,0.32799090461046365,0.20131438849628225,0.5092346931876363,0.08530283858492524,0.35463675198173994,0.6913506573581625,0.816402691067873,0.1270042762982562,0.9954233682804282
0.35775933353471445,0.9008773978969854,0.6122610586530777,0.21029605025876857,0.12252489047283438,0.2623482463055444,0.7409790884804524,0.7860228271050311,0.0953199056302507,0.7684549001576998,0.44618489717400917,0.25410804545195786,0.06599041342891282,0.8514878307012723,0.5417491619139029,0.5792055816207091,0.6550740590265212,0.907649980070417,0.06958205018234681,0.3414315308521426,0.22185801135486946,0.08523610798860896,0.11500801105920576,0.32327890758044964,0.1740958178354467,0.4620247959884085,0.07826384627224595,0.3645323550354498,0.22602435320847272,0.907004251838976,0.12066059135881552,0.9816934731217133
0.4947369243202907,0.9157801500410219,0.7122610586530776,0.19724868133284942,0.25722560046730747,0.19292937630748264,0.3056900047157688,0.7150208242446925,0.3150249219559561,0.82083824846692,0.32611859782281716,0.24296986668965495,0.12738366345383678,0.8370945056965913,0.6343832350389191,0.6245818811584369,0.2712928173386847,0.845424600692471,0.14144292548963916,0.3145336927536535,0.6097972810826906,0.11127777465527565,0.08878795201019443,0.34369756137717694,0.18770510316586447,0.4620247959884085,0.08530283858492524,0.34803968327926676,0.2417772574303241,0.9742372925245485,0.11114506394965448,0.8649774257254587
0.23119802793603908,0.8686175535381204,0.7678166142086331,0.20703420802728875,0.4651407879061306,0.1440206269906664,0.042124750041743604,0.7497329145319691,0.3241379310344828,0.8848623408448555,0.1554980671658597,0.2777766753218515,0.05637119453099842,0.4835148355265382,0.6206596686500276,0.5081818084312222,0.16865324328215253,0.9266720335859976,0.08616532909941428,0.3162148076348091,0.4754482391266332,0.07742360798860896,0.0035727601009078926,0.3452682270538482,0.2574011401610343,0.5432258191710803,0.04843801535598424,0.33154701152308375,0.5517984587810562,0.9009227451866751,0.11114506394965448,0.8535358464265295
0.05568706311458601,0.7810046297871202,0.5289277253197443,0.24291447257356658,0.35396079469929936,0.167686150853642,0.29866921304214483,0.271118104371121,0.3931034482758622,0.4674040951376043,0.561740089484683,0.6898526046532124,0.08395623409739925,0.697941133321054,0.5973068483640733,0.6265547637470338,0.24038361522776863,0.8886279265548365,0.06405429054332433,0.3397504159709871,0.25848531698035787,0.07742360798860896,0.02622005904901133,0.3358442329938202,0.32408650577499803,0.5205650685154509,0.055477007668663696,0.34803968327926676,0.3715070569043939,0.7917505761498296,0.09528585160105278,0.8787073208841737
0.05532305881874948,0.7810046297871202,0.23162783023581127,0.6409519984857803,0.11571795211323246,0.5001314043042178,0.294873250292205,0.09924502177589548,0.775862068965517,0.5663504197216866,0.07262790160140535,0.36409756072969895,0.06698114192460919,0.572093950228514,0.25181606452373534,0.6443107070444055,0.31787819345096063,0.9372398410946536,0.05852653090430184,0.3969083219302764,0.33454734594104185,0.09304860798860898,0.12811804058371143,0.27615893728030966,0.2354818764748046,0.4053729193493353,0.15569276171171964,0.3645323550354498,0.5621006882926475,0.9226919613322762,0.07117984883117819,0.9473687352249256
0.01045290724440678,0.9008773978969854,0.7866278302358112,0.4957297007450338,0.4205921210977533,0.437362409243101,0.7971454218694437,0.1353289164471727,0.5529559564387145,0.4518831030459836,0.05687351021898582,0.6968139663796518,0.10390145261481055,0.6574565509959597,0.26142256099595923,0.5693411686777248,0.17528812746975078,0.89496861106003,0.14378947188392102,0.6657214929376057,0.18630797942424837,0.059194441321942334,0.10845299629695293,0.24474562374688308,0.5203901366016302,0.3713817933658913,0.16977074633707853,0.9581799198104269,0.340927889885506,0.886834339633304,0.02410600276987456,0.8970257863096373
0.035291741151632194,0.7135285138005281,0.19773894134692233,0.4609910809797739,0.8046567836305908,0.09148316401486051,0.20401947078932847,0.11876178244642704,0.6633007840249215,0.9197845730510024,0.5725704754384221,0.6063162639359406,0.06698114192460919,0.7979576197159713,0.3640062197529216,0.6206361159812431,0.2949495890134641,0.6944296382418156,0.21951977893852903,0.8807389877479569,0.11413064186813889,0.0033055586780576683,0.22644326201750392,0.20076698480008576,0.3944218330306535,0.3978193357974588,0.02899090008348976,0.9284931106492975,0.7158305006694201,0.9787194952369199,0.03000192595290057,0.871854311851993
0.016061676191199623,0.8732008582009181,0.3233721697641888,0.6638776677778174,0.3479847785953329,0.5995266045287153,0.35483554643113613,0.15593707750879396,0.5046800943697494,0.5372485595498978,0.8632573054465715,0.6550457960210159,0.08395623409739925,0.6639793653260629,0.21441934611400662,0.6305005289242276,0.17576316304554956,0.7324737452729767,0.2554502165921752,0.8941879067972014,0.11413064186813889,0.08002777465527562,0.18711317344398692,0.16307100855997386,0.30544604140326675,0.401596127573397,0.0062040614799075125,0.8988063014881682,0.6843246922257173,0.942861873537948,0.06330627188496415,0.8375295739552054
0.024074203258046534,0.7241733367605541,0.16440560801358897,0.6164881817496819,0.17327336069888405,0.7852456100288424,0.27760683802127306,0.1606705443661499,0.7172413793103446,0.4189009948512894,0.5175489429927704,0.6870680599626366,0.27160147476464064,0.7661701231643482,0.1797787196944758,0.6510512542369643,0.3270144903798819,0.6923160767400843,0.35108045834726415,0.8252621966698229,0.46990678570111877,0.12169444132194233,0.31165845392679076,0.13322836070321853,0.3251381986212538,0.3203951043907254,0.03519496156339728,0.8575746220977106,0.6054675069739794,0.9092453531951618,0.14862883432044124,0.7322670444050569
0.011217537893585669,0.8753298227929232,0.18718338579136679,0.1988796024485893,0.31992610290128976,0.03673691881184362,0.9348838840135792,0.23167254722648845,0.6012318185076805,0.6908499396995958,0.0038353732485644776,0.4935422039676239,0.10658969032778591,0.5979246469261366,0.3907899316360988,0.54671851169152,0.23845224517740413,0.822175424173428,0.8032511968193031,0.6621940531977327,0.35663796278887383,0.0982569413219423,0.3444335277380549,0.037574820993934485,0.36010993789456985,0.19670517372874874,0.6559030519402207,0.8443804846927643,0.4132059210210591,0.9294152654008335,0.42711660316188704,0.6475993575929808
0.03365261368075701,0.9008773978969854,0.8717944969024778,0.614857260633942,0.6344833246405429,0.17084155403537205,0.09899316259809747,0.21904996894020606,0.5012318185076804,0.15485011689259098,0.2161193388321459,0.3501748372768203,0.17972353098660604,0.6935925904343184,0.44120128069043507,0.8077308781628847,0.12634384928889147,0.5359125256119773,0.34106276972768723,0.4809698690091623,0.17182515433133533,0.06700694132194228,0.3444335277380549,0.020454565118216975,0.4292698515282383,0.34872104271026194,0.7586723397053405,0.8377834159902912,0.5429357204951286,0.7581340558070433,0.3915919675010192,0.6109863038364074
0.05932932235217294,0.5681081705866005,0.29559439198641096,0.11896446777733424,0.9317196330098264,0.6464078700327188,0.8408052755870187,0.8033788722486693,0.760837147009561,0.5587557152983479,0.10426810206814052,0.2958762158105937,0.09909184316585336,0.6818946581185863,0.1169934034652982,0.2570338549028416,0.35778118181805835,0.6476819153574822,0.5041994003481869,0.22879683381471946,0.10347864449505693,0.016326392011391015,0.4427587491718471,0.07040173363636532,0.4292698515282383,0.14439660763200446,0.10897334924502755,0.17816516419058182,0.8798460328616367,0.7850272720812723,0.078792270758507,0.787186625039917
0.02327295055136182,0.8196513679220008,0.2789277253197443,0.16463025901805142,0.16790447953684728,0.20555098903440297,0.13199088346412988,0.7860228271050311,0.5379310344827587,0.5146866794597001,0.739943754837505,0.19980942398573126,0.04830854053454008,0.8232223019374912,0.5177329207333432,0.7437767359010169,0.13538513910265304,0.40419963035805057,0.7496319283207851,0.09262652844111828,0.17565598205116648,0.15434722534472436,1.0,0.1960549877700718,0.3521298816073741,0.46013640010043944,0.4271358017781386,0.17816516419058182,0.6309666558525331,0.6976243191900278,0.05690655771743672,0.5629197322337279
0.03368574849033123,0.7688815931926631,0.6011499475419666,0.1581065745550918,0.9385265713694283,0.3144123988040907,0.2615899625130446,0.7623554928182517,0.693103448275862,0.440242358977268,0.19973301955840425,0.29169939877473017,0.10524557147129823,0.4443779495459182,0.16811368826391823,0.4470224481847194,0.25460345475456275,0.5612752636327514,0.5113854878789161,0.23047794869587498,0.28446062523276433,0.039062500000000035,0.151556796869776,0.6034138416556357,0.3539033452312695,0.5467562873646894,0.8712962167082118,0.04177076876694838,0.25667967467369496,0.8224841977201737,0.1260527235573401,0.6086860494294448
0.31372705672456225,0.4765626931303771,0.18944444444444447,0.2510690781522661,0.3259021190052562,0.8167996418461433,0.15796781265653828,0.36578744151823905,0.2492973820215202,0.29473305811832323,0.12575365037309072,0.3682743777655626,0.127879027701685,0.5248259929505257,0.21238356858051224,0.5732869338549186,0.22423240565061,0.796812686152654,0.32178333226044503,0.2943603141797867,0.22185801135486946,0.06179860798860894,0.5201729194030931,0.7903230571795242,0.1806942592077705,0.8636291173659059,0.22511672240423847,0.15507542373192562,0.19413137849869705,0.7962327788622012,0.4473603657400104,0.3649804103622529
0.17010594962915984,0.787716899041923,0.2582944969024779,0.3407697395179605,0.4705096690681674,0.8167996418461433,0.08396393317035926,0.34843139637460085,0.6322663012663008,0.915904325028097,0.2843237451942969,0.39194300763545614,0.12922314655817269,0.8406164734844335,0.1434226474763335,0.638392059278615,0.11066767528753166,0.6838618307331598,0.16811161429562002,0.27082470584360874,0.17565598205116648,0.20502777465527564,0.23955329154200958,0.621983607961847,0.22057345674666895,0.831526387270431,0.5006033850330126,0.14353055350259752,0.14818647352403116,0.7446874476699287,0.43467299586112906,0.46909878198250854
0.03368574849033123,0.8476532830968556,0.3511499475419666,0.3407697395179605,0.1557286600152086,0.3838312688021525,0.22144050463228157,0.34843139637460085,0.14359576769921625,0.49650595530939323,0.03543176781466771,0.5694393892227354,0.3740178642071406,0.844965016371169,0.04255443451798261,0.96161572007344,0.38268865986349926,0.724019499266052,0.14378947188392108,0.254013557032053,0.11413064186813889,0.16336110798860903,0.21333323249299824,0.2510282864535684,0.2135626127885749,0.8277495954944928,0.585071292785166,0.18146369854181843,0.14818647352403116,0.7904669813173164,0.3468129594498756,0.5560547846543704
0.15981329292608998,0.7213936212109747,0.10670550309752205,0.31630592278186204,0.2033772285324219,0.32545630994014607,0.05616633338899147,0.3689430860898097,0.5115766460938873,0.3781583906107849,0.10494383586009454,0.39890436936189544,0.7516431928938074,0.7661701231643481,0.18150554420550682,0.6127445856268557,0.3907642646520786,0.7536093602902886,0.03040267801462368,0.254013557032053,0.11796146958797,0.12169444132194233,0.5699910315962146,0.20862031318344243,0.34608824997838183,0.7389949887599446,0.43021346190621823,0.22929244663474918,0.2339008053193984,0.6873763189327715,0.11748874888909518,0.8535418157001179
0.019266687017938388,0.6766853647788657,0.10670550309752218,0.30488947497168273,0.8327154593246338,0.3191455035766859,0.08354742091612481,0.38945477580501864,0.5206896551724138,0.5547096756529711,0.031596394566103234,0.4044734587430469,0.6213588456820269,0.6944191655332117,0.09195927351799123,0.6226089985698401,0.2878871728076469,0.6838618307331598,0.18013724296279643,0.22207237429009713,0.25848531698035787,0.06179860798860894,0.5064073884023621,0.3484095584071909,0.5245141624593328,0.7333298010960374,0.6343442389739222,0.20785197335171124,0.1631650452137361,0.7693395625879721,0.06864237485540191,0.8489651839805462
0.06798285158436758,0.7448122317230319,0.2233721697641887,0.3114131594346423,0.4469889522805255,0.32072320516755093,0.14421179622241828,0.34527575180303016,0.689655172413793,0.5469491796071608,0.05935741588364199,0.3975120970166076,0.3460794342799485,0.975421302973235,0.2020908937888437,0.6206361159812432,0.5111538934330747,0.7049974457504714,0.35702555141151593,0.23215906357703056,0.13902867642567807,0.08784027465527564,0.197666193100254,0.8107417109762515,0.48327390388230906,0.72766461343213,0.6836171851626784,0.22434464510789426,0.13165923677003347,0.7177942313956995,0.06864237485540191,0.6979303679610924
0.05211804799201072,0.7107487982509488,0.04559439198641102,0.31304408055038224,0.1347007099944732,0.3570103417574468,0.08958056650925841,0.6405958480288324,0.3184731978180251,0.5178473194353719,0.06567669479686264,0.3905507352901683,0.731838918692219,0.7292075086270959,0.09127309519854666,0.6028801726838714,0.15961195346839097,0.759950044795482,0.44546970563587557,0.22039125940894155,0.25848531698035787,0.1425277746552757,0.4296487196473416,0.8688563410130907,0.47143808217578664,0.7031154668885317,0.36686253109210326,0.27052412602520665,0.47397708879276157,0.7334819408889999,0.5900932768774256,0.7276784741383083
0.03088485126486639,0.7661018776430839,0.24559439198641095,0.2510690781522661,0.09075917812802556,0.3617434465300419,0.09730343735024474,0.4068108209486569,0.40689655172413786,0.5779911637904024,0.08526645942784664,0.38358937356372896,0.3559110992228311,0.9449815027660866,0.12318038705271891,0.5870971119750966,0.38970357251173654,0.6690669002210414,0.6997466490309099,0.21702902964663043,0.3850111124425229,0.16856944132194232,0.5017538820321226,0.7887523915028528,0.516266110743928,0.6219144437058599,0.14865376939904018,0.22434464510789426,0.07783787968444177,0.8029560829307584,0.3997827286942053,0.8077695292308128
0.0228723241980195,0.8022942757071722,0.1955943919864109,0.27879473711984437,0.051355605167979206,0.3759427608478273,0.024858337770811718,0.39418824266237446,0.308128370231818,0.4829250872292251,0.0467188580572007,0.3975120970166076,0.3951662572652166,0.7683443946077159,0.13690395344161022,0.6127445856268557,0.25556913977974505,0.6817482692314285,0.6831633701138424,0.23215906357703056,0.3200106571633854,0.20643055867805768,0.08223293724794174,0.6772351284591883,0.4292698515282383,0.744660176423852,0.1174201400202429,0.30021093518633607,0.2023949968756958,0.9143693533237898,0.20394947080301776,0.8100697836377754
0.02567670867141592,0.7788756651951151,0.009961163569144584,0.3684953984855388,0.18295641345361627,0.3885643735747476,0.15908640407813535,0.34212010723145964,0.5366992159750782,0.5003862033322986,0.07199597371008327,0.4211807268865012,0.581892271165907,0.6857220797597406,0.02437070905270168,0.636419176690018,0.22230103560024556,0.688088953736622,0.6334135333626401,0.3145336927536535,0.3795235227017518,0.7559097253447243,0.4801873293533509,0.20076698480008576,0.5201015872966744,0.5791053410424933,0.09221079929610086,0.3035094695375727,0.18633108083410568,0.7065887246147707,0.4502710531908455,0.43225689663995653
0.032086730324893425,0.7064908690669384,0.03218338579136683,0.8922066239814034,0.10664203430042991,0.8735968991172847,0.0797514581661849,0.2679624597995504,0.34137931034482766,0.4150207468283842,0.09230527803365339,0.6480844342945766,0.8159360971054411,0.672676451099534,0.09539016511521405,0.8511342951120155,0.11019263971173286,0.8146532739942453,0.16030502953165196,0.6741270673433836,0.21120601398178745,0.08523610798860896,0.6328541772771791,0.16319216380615129,0.3947105148406926,0.5035695055237289,0.16317359005265927,0.29526313365948115,0.2023949968756958,0.6134199741786415,0.19208307615560988,0.8398178898149913
0.013621296013639744,0.72352258580298,0.22051671912470014,0.8905757028656633,0.13757682438960323,0.8625529879812294,0.08102467115980304,0.21747214665442072,0.503448275862069,0.3160744222443018,0.24396797195094877,0.6230235320793951,0.6597652491157728,0.7226846942969927,0.07067636690279008,0.8373241169918376,0.34980058414463877,0.6373634776950737,0.16590051044001103,0.766423175829378,0.46436533227560434,0.03125000000000003,0.7442894282354772,0.1505056831466032,0.3661515695235621,0.49601592197185246,0.16977074633707853,0.35463675198173994,0.1945185447647701,0.7402052449575572,0.4822749437103237,0.6018211018500872
0.015624427780351472,0.7639729130510786,0.3677389413469223,0.8693737283610447,0.11798693156643324,0.8641306895720944,0.031307995618179756,0.2016939237965677,0.4896551724137929,0.3878590106680479,0.027761021317538756,0.5979626298642136,0.7686887572245089,0.9884669316334418,0.10668934996121009,0.8136495259286751,0.09499150128617184,0.616227862677762,0.05306649253461582,0.5073633726433047,0.6151232797692316,0.11528472534472432,0.4801873293533508,0.30286025378372233,0.18634404212773936,0.5092346931876363,0.1455761092709607,0.3150543397669007,0.2491903888288424,0.8717884275562603,0.1797128905237006,0.6224159445881597
0.041701762805109725,0.7873915235631358,0.3188500524580335,0.8383862271619865,0.12108683327526937,0.39803058311993783,0.05616633338899147,0.20011610151078238,0.4770938874731974,0.4286016149085524,0.012638557826441294,0.5673326382678806,0.502689062876889,0.709639065636786,0.09571049685009705,0.7781376393339319,0.35154193996468375,0.6204549856812243,0.12485964657257169,0.5720862955677942,0.4392518429790917,0.11458333333333333,0.5345289558433868,0.03443348964059182,0.470901826309202,0.6370216108096128,0.22608268483851418,0.6696024733010298,0.5207096389785202,0.7267586368204426,0.23934352895444294,0.5217300467575828
0.019266687017938388,0.9008773978969854,0.4932944969024779,0.7845658303425699,0.0658004041428184,0.38225356721128745,0.18633654626416188,0.14804796607986745,0.7413793103448273,0.3762182665993323,0.031596394566103234,0.5353103743262597,0.5217150546277494,0.6313652936755464,0.18937383745428002,0.7130325139102353,0.23230801043918933,0.46193787305138595,0.8711071978406068,0.37152638873538096,0.6328982957345421,0.06179860798860894,0.21172697682076635,0.17877766532668715,0.3801732574397501,0.6911528949966937,0.32660924330832647,0.33484554587432036,0.217760734831474,0.7783039680127151,0.15782717748263023,0.7299667899980942
0.032086730324893425,0.7597149838670683,0.6699611635691446,0.7584710924907316,0.1361387671920382,0.8783300038898798,0.0740038794861791,0.08351503459124864,0.3862068965517241,0.3451762824160907,0.5465738200929535,0.5088571997657905,0.7771058311529925,0.6096225792418686,0.3777297861418129,0.6913308054356698,0.3596175447532631,0.4640514345531172,0.9618301771899119,0.11515927086971019,0.6668324171228625,0.21093749999999997,0.151556796869776,0.16150034288330248,0.5203901366016302,0.2514686544798529,0.5701583773270353,0.7256332480482467,0.1866420926538445,0.7321983460564866,0.3236585094209172,0.4130469819649323
0.027279214084785303,0.6490088250827981,0.8182944969024778,0.5790697697593425,0.07714530140882173,0.6421245474820714,0.03889992111805959,0.03444476150332574,0.4987681814923198,0.4286016149085523,0.9769167140832791,0.5854321787566228,0.22824451756611455,0.6705021796561662,0.4813427123779421,0.7643274612137537,0.4636503358531964,0.8104261509907829,0.8733860229655522,0.6388265563496703,0.4934925735156606,0.10086110798860898,0.17341263847991858,0.14893501746993187,0.8520856688417142,0.399707731685428,0.18384873096243745,0.23094171381036743,0.4819296953500215,0.6678482041433562,0.2943432773793936,0.6498757349055898
0.017664181604569004,0.7156574783925332,0.21666666666666667,0.1403295343935269,0.07570724421125659,0.37752046243869236,0.03889992111805959,0.12280280950730264,0.11847319781802494,0.46934421914905694,0.502970795591731,0.46780350801672155,0.19896196878243474,0.5661371503745134,0.26005020435707016,0.8728360035865811,0.6446076624853632,0.8928550495582988,0.4626734817861818,0.1296110558265408,0.25848531698035787,0.03645833333333337,0.3163119602970302,0.5921409601050918,0.6935992226251293,0.7389949887599446,0.057015837732703585,0.28701679778138967,0.2256371869423997,0.5586760351065106,0.10752545972351947,0.26269269142982593
0.03285136097407232,0.5851398873226421,0.9341278302358113,0.09613157215697567,0.05589356407438048,0.8688637943446896,0.43921599185573,0.30267455008682703,0.18054216333526638,0.11701769866926537,0.0966411614716438,0.19145578991400408,0.06599041342891282,0.3813240776882529,0.5486109451083486,0.6028801726838714,0.6693251263004848,0.9351262795929225,0.5560248984163252,0.13801663023231867,0.3307703819059541,0.117888892011391,0.16816862667011634,0.7887523915028528,0.34004661834938954,0.640798402585551,0.5995911134387851,0.18806076724429163,0.4502715780136503,0.8442534138657747,0.6218117015746291,0.956521998664069
0.02327295055136182,0.6195286962735124,0.2405167191247001,0.13201183670325342,0.08395223976842364,0.11956625233225825,0.010816754423563849,0.6976647791010543,0.08620689655172402,0.560861630932272,0.8492672800362221,0.1469030748647925,0.04830854053454008,0.655803400798173,0.5932125358722452,0.6285276463356306,0.44648593769327566,0.9393534025963848,0.32385899357738096,0.2859547397740088,0.22185801135486946,0.14513194132194235,0.08718169633796267,0.5968529571351058,0.2293577643286583,0.4185916905651191,0.1724553116606464,0.22764317945913087,0.3572964237124332,0.7402052449575572,0.053156375981859065,0.8123461609503844
0.03368574849033123,0.6663659172976266,0.4805167191247001,0.2575927626152257,0.1951322329752547,0.12274518376930015,0.22466533355596574,0.5903728636676536,0.09310344827586195,0.8402394885814458,0.21038818190961536,0.19702487929515555,0.14181249180070832,0.27834987822952834,0.17565027106538875,0.09686853510010592,0.6688344768511012,0.8421295735167506,0.2260853692360195,0.2825925100116977,0.4030554468315503,0.04236805867805771,0.016682789625413558,0.3735402092339322,0.13025729046298723,0.3203951043907254,0.16119292396035936,0.26887485884958834,0.19374421223262397,0.6281501771482693,0.1714100708743409,0.846670898847172
0.7151180407160864,0.7043619044749332,0.06607227468025569,0.2624855259624454,0.3758196669756703,0.5821718870291999,0.6497087967233413,0.34054228494567423,0.3736456116111286,0.9605271772915068,0.26924508760383137,0.20677078571217056,0.05714947698172645,0.7993053160604459,0.33932655767775655,0.12468617959932167,0.7082624296424,0.7989262476543851,0.19740874038243914,0.37673494335640956,0.005325998686540944,0.014923607988609016,0.048867357997114766,0.24474562374688305,0.14427897837917525,0.8485219502621529,0.282132560136942,0.3233006756449922,0.14818647352403116,0.742446346313743,0.10638730024507398,0.9244796073534787
0.39986172269316655,0.8090065449619749,0.05611111111111116,0.21518881360598827,0.38118854813770703,0.7757794004836522,0.23548208797952944,0.2821628603716181,0.4275862068965517,0.9100839529937393,0.6736789380499525,0.23183168792735206,0.08112705206860087,0.9188902454456731,0.5520418367055714,0.41151056158997584,0.35154193996468375,0.7303601837712456,0.11380412729452671,0.3851405177621874,0.6382242944210831,0.06840972534472434,0.31165845392679076,0.2400336267168691,0.2293577643286583,0.5262302561793581,0.10897334924502755,0.3282484771718472,0.4271055423932809,0.8897172384057465,0.08006100774639514,0.9199029756339071
0.04964104575694502,0.8065522048911826,0.05670550309752214,0.23312894587912716,0.28899131281211626,0.28601377016852003,0.5332946002822907,0.2884741495147593,0.7366992159750781,0.7742752721920576,0.44618489717400917,0.24018532199907924,0.05311814998349728,0.5829653074453528,0.7235864165667124,0.5930157597408872,0.41442103632685784,0.724019499266052,0.18013724296279643,0.33638818620867594,0.3617485067364413,0.046874999999999986,0.14778308487046993,0.2981482567537083,0.24160598862095092,0.42048008645308815,0.14865376939904018,0.35628601915735825,0.3808496255988759,0.9406207721817623,0.12383243382853586,0.9336328707926222
0.06798285158436758,0.8284926017688087,0.22892772531974426,0.23965263034208678,0.5505310848721194,0.20397328744353788,0.6203524170352274,0.5916833571694882,0.47364561161112867,0.7412931639973633,0.47146201282689176,0.26106940717839716,0.06599041342891282,0.577964483125607,0.13460031789622143,0.8097037607514815,0.28696899134004455,0.8623330927063204,0.0751098098213693,0.386821632643343,0.28978662391930526,0.05398610798860899,0.05601287819893041,0.32956157028713495,0.255627676537139,0.5073462972996672,0.036029892396169216,0.34474114892803015,0.9274919117932637,0.9697550898121772,0.13017611876797655,0.9771168414021415
0.03368923573826281,0.8476532830968556,0.4289277253197443,0.23965263034208678,0.3108501850884873,0.32072320516755093,0.21272998771080498,0.7781337156761045,0.789655172413793,0.7723351481806049,0.6863174958763936,0.2749921306312758,0.08466301481898184,0.8370945056965913,0.0415251670388158,0.5811784642093061,0.2080811960734514,0.8559924082011269,0.15802620440670648,0.39018386240565417,0.3075616398846158,0.2519027746552756,0.16089311439497558,0.306001585137065,0.3801732574397501,0.4997927137477907,0.0782638462722458,0.33484554587432036,0.5829336106548328,0.7648573598756006,0.13334796123769688,0.9931350524206424
0.029682972204839352,0.9030063624889907,0.5289277253197443,0.24291447257356658,0.5164963930741097,0.33018941471274116,0.7620414635013241,0.8570248299653697,0.42192147368009414,0.7975567603294887,0.7242331693557175,0.26803076890483646,0.028079374243015078,0.9232387883324088,0.7647571157333861,0.5279106343171907,0.39883986944065786,0.9097635415721481,0.06405429054332433,0.3380693010898315,0.11413064186813889,0.1347152746552757,0.049457863436677574,0.2997189224303796,0.2828462471979745,0.48657394253200686,0.04306888470884867,0.34144261457679353,0.5568353418673505,0.7917505761498297,0.14603533111657824,0.9816934731217131
0.027279214084785303,0.8732008582009181,0.695594391986411,0.22497434030042768,0.3054813039264505,0.29547997971371026,0.769062255174948,0.7765558933903192,0.43571457712836964,0.7742752721920576,0.395630665868244,0.27359985828598793,0.08466301481898184,0.9145417025589377,0.4731313299694465,0.7911259180273416,0.2878871728076469,0.8674923115375247,0.1193318869335492,0.32966372668405364,0.22185801135486946,0.1347152746552757,0.0554223727593676,0.33584423299382027,0.4214135160167737,0.5167882767395128,0.014912915458130852,0.3463904161036484,0.9274919117932637,0.9742372925245485,0.08767342967372396,0.9313445549328365
0.03164948191404529,0.89449050412097,0.7678166142086331,0.22823618253190747,0.4257372149460844,0.2781252622141948,0.04592071279168352,0.7181764688162632,0.7598525081628522,0.8247184964898251,0.11758239368653584,0.26803076890483646,0.2892128755011018,0.8436173200266945,0.42166795601110424,0.5969615249180809,0.3999955686961596,0.918217787579073,0.11380412729452671,0.3263014969217425,0.23101483776124157,0.07361805867805768,0.14778308487046993,0.34055623002383417,0.3530990939364758,0.4771319630921614,0.05714686933420758,0.3430918817524119,0.8718934263043767,0.9495851776065053,0.13017611876797655,0.8718423733048162
0.02006793972462308,0.7873915235631358,0.7178166142086332,0.25269999926800596,0.1920323312664187,0.17715236039883225,0.07652662924250088,0.34054228494567423,0.4401474918371475,0.7333668763290815,0.20027733564846234,0.3473902925862446,0.08395623409739925,0.5704856932612488,0.465915078902859,0.5555309905575468,0.7880684063765956,0.858105969702858,0.13038740621159417,0.33470707132752037,0.11413064186813889,0.12169444132194233,0.03933008857351685,0.34998022408386226,0.2640408217919351,0.49790431785982153,0.03519496156339728,0.34144261457679353,0.746796833954381,0.8986816438304894,0.09909206256471718,0.8672657415852445
0.03769549927168627,0.7639729130510786,0.3178166142086332,0.3260914494763014,0.6738868976005893,0.31756780198582085,0.22115493771915376,0.23482819179805905,0.48842335390611286,0.42666149089709976,0.3298225533694855,0.4100425481241983,0.04830854053454008,0.7414265621884094,0.5973068483640733,0.5969615249180809,0.2080811960734514,0.9203313490808042,0.02259609325065567,0.3582426796636984,0.11413064186813889,0.05659027465527566,0.02323780438766639,0.29029492837035165,0.4016388782816326,0.5243418602913891,0.055477007668663696,0.3463904161036484,0.4271055423932809,0.7670984612317864,0.07498605979484259,0.9199029756339071
0.06847048436403522,0.8707465181301256,0.37496116356914455,0.8122914893101483,0.43647497727015777,0.6268443703059924,0.2284612963059055,0.042601201716203144,0.4275862068965517,0.7721693565581335,0.02144174240431811,0.4044734587430469,0.05792775943245448,0.7066382190945251,0.2394648547737332,0.6068259378610652,0.22423240565061,0.9245584720842664,0.04194325198723438,0.4036327814548987,0.21120601398178745,0.06961110798860895,0.10845299629695293,0.268305608896953,0.3104772204445803,0.3997077316854279,0.1275367924610018,0.6729010076522665,0.9559067841427832,0.865065123487703,0.08132974473428328,0.913043997328138
0.02327295055136182,0.7983617220019489,0.7532944969024779,0.4148360134043348,0.545993125965718,0.5055191179684708,0.5795008799871021,0.07347828284438888,0.5529559564387145,0.5197874434468244,0.10494383586009454,0.6898526046532123,0.04830854053454008,0.697941133321054,0.27274450326679456,0.5496123427917562,0.22230103560024556,0.9330127180911911,0.25489744062827296,0.9395780085884018,0.1809819807377074,0.0338541666666667,0.18055815868173408,0.22589763562682708,0.26882455928178645,0.3241718961666636,0.1275367924610018,0.9449857824054806,0.4271055423932809,0.8644233260714465,0.041737743090865836,0.8901608387302797
0.03368574849033123,0.8391374247288349,0.13777777777777772,0.5970099020324815,0.5028825163549059,0.11877740153682573,0.34022282925763264,0.15751489979457928,0.17019733574905965,0.9275450690968128,0.5283355230458776,0.6355539831869859,0.10390145261481055,0.8014795875038135,0.3362159978154168,0.6068259378610652,0.5182638131964717,0.7113381302556651,0.19740874038243914,0.9076368258464459,0.19396963486391067,0.026041666666666692,0.12156302582145859,0.1976256534467431,0.20743850064242858,0.435587253556841,0.06955499229402261,0.9367394465273892,0.1709653428783275,0.9540673803188767,0.059500060921299745,0.9061790497487806
0.18364367979430268,0.864684999832897,0.3178166142086332,0.7519474080277719,0.3985094615076766,0.8767523022990148,0.3758979214520081,0.11175805350680552,0.6206896551724137,0.53142818751554,0.6357632645706286,0.6814989705814852,0.12306941825272781,0.7770414803811868,0.2130469894751175,0.5811784642093061,0.12634384928889147,0.7092245687539337,0.21067536351609306,0.9244479746580017,0.24017166416761368,0.10867360798860899,0.12156302582145859,0.18977232506338643,0.18021992998159303,0.3940425440215206,0.03519496156339728,0.9004555686637866,0.19374421223262397,0.9137275559075332,0.04808142803030652,0.8398178898149913
0.9206393599807097,0.7816553807446944,0.2649611635691445,0.8204460948888478,0.6906006760286292,0.8546644800269042,0.35876245452218275,0.3152971283731094,0.6517241379310345,0.4635238471146992,0.15671811704787197,0.4664112356714337,0.19040395053812825,0.7357303229571992,0.1585071917916943,0.689357922847073,0.3201895919619641,0.7134516917573962,0.399724743170662,0.8050888180959561,0.4754482391266332,0.12950694132194235,0.2854383948777794,0.15364701449994586,0.11883387134223512,0.3298370838305709,0.04223395387607673,0.8707687595026571,0.1474121409918848,0.9249330626884621,0.21270005220879207,0.7620151505822728
0.8441563485498276,0.7646236640086529,0.4683333333333334,0.07616401610505327,0.4333750755613216,0.15348683653585662,0.7586620130056188,0.22536125808334723,0.42192147368009414,0.782035768237868,0.2881591184428613,0.582647634066047,0.3805249828733767,0.6710233009017474,0.41752812866959754,0.5518480064218717,0.32585879112438015,0.9435805255998471,0.793854005432965,0.6571507085542659,0.17182515433133533,0.06961110798860895,0.3051034391645379,0.04778414789229812,0.11883387134223512,0.23258469560016182,0.63900947038979,0.8476790190440009,0.15528859310281043,0.9383796708255766,0.35955635855684376,0.6750591479104109
0.6826306840378508,0.7959073819311566,0.761905608013589,0.7356381968703729,0.957432659725024,0.2812806653959249,0.15866989182390084,0.25691770379905327,0.23325094011300943,0.19054839870331877,0.12390167259975648,0.35435165431268395,0.7374972827498156,0.6283644471332854,0.4548219203314096,0.7299665577808389,0.12067465012647548,0.6563855312106542,0.6003824180671781,0.6608491612928082,0.10347864449505693,0.10086110798860898,0.40998367536058294,0.017941500035542846,0.6524208906885129,0.3449442509343238,0.8888936974899103,0.8773658282051304,0.28810932867106326,0.7514107517384859,0.40427933737990057,0.6430227258734091
0.4303093255471847,0.5808819581386317,0.07944444444444451,0.17278486459675094,0.44615803002489013,0.6842727082134799,0.8695905214488767,0.8522913631080138,0.6908869909214733,0.6247199316877362,0.16303739596109262,0.3139757562993359,0.7970510496704037,0.6688490294583797,0.12350071878760188,0.28524607591977674,0.4064404386534384,0.7038159800764822,0.1182940562750811,0.28763585465516445,0.25848531698035787,0.018229166666666685,0.38376361631157174,0.07511373066637932,0.4750258521669044,0.21672217014122128,0.11051217930906729,0.21774757640542103,0.18633108083410568,0.7917505761498297,0.10467080150077117,0.7459969395637718
0.022835702140513683,0.851911212280866,0.29003883643085543,0.19398683910136963,0.3607677330589013,0.22132800494305338,0.1766383832621951,0.8380909625359461,0.4758620689655174,0.5986940491555975,0.7070835044887577,0.2777766753218515,0.9596585441683968,0.7906082302869748,0.6721230426083701,0.8787546513523717,0.25556913977974505,0.5149502530487643,0.6667155337354479,0.09615686969154498,0.28446062523276433,0.05799305867805766,0.3493822868280756,0.15835901152995982,0.561692321819061,0.34494425093432374,0.17034361396684258,0.22764317945913087,0.1709653428783275,0.7267586368204426,0.1650663859349003,0.7368317375774517
0.07047361613074697,0.7561078056406321,0.5400388364308554,0.18583223352267014,0.23824284258606698,0.24026042403343384,0.2284612963059055,0.8444022516790873,0.35862068965517213,0.3083139261984914,0.16366932385241462,0.3251139350616388,0.36687443697723315,0.531348807280629,0.12487307542649101,0.4608326263048974,0.7505562097620765,0.6108192740003103,0.5041994003481869,0.23552129333934171,0.2348456654810727,0.08263194132194229,0.151556796869776,0.5674455976598622,0.6140674502118809,0.5543098709165658,0.9001560851901975,0.06271646189730085,0.11629349881425528,0.8240835016601028,0.19044112569266294,0.5697846798130856
0.04090051009842503,0.5595923122185797,0.19722222222222227,0.3114131594346423,0.12479386992603489,0.5932157981652552,0.3391042378360357,0.6058837577415558,0.28965517241379296,0.4615837231032465,0.12390167259975648,0.38219710121844114,0.8348916166983902,0.550917250270939,0.2501233761499632,0.5496123427917562,0.31095828791788316,0.7059295415782133,0.32620553997166296,0.28763585465516445,0.24783331960727586,0.06179860798860894,0.6833927869831884,0.7620510749994401,0.8318160154985655,0.8371915749343383,0.2905793509121573,0.21279977487856616,0.17876564054291885,0.8096793869993156,0.3807516738758832,0.3798544634508609
