L_Quad: EMG 1,L_Quad: Acc 1.X,L_Quad: Acc 1.Y,L_Quad: Acc 1.Z,L_Hamstrings: EMG 2,L_Hamstrings: Acc 2.X,L_Hamstrings: Acc 2.Y,L_Hamstrings: Acc 2.Z,L_AnteriorTibialis: EMG 3,L_AnteriorTibialis: Acc 3.X,L_AnteriorTibialis: Acc 3.Y,L_AnteriorTibialis: Acc 3.Z,L_Calf: EMG 4,L_Calf: Acc 4.X,L_Calf: Acc 4.Y,L_Calf: Acc 4.Z,R_Quad: EMG 5,R_Quad: Acc 5.X,R_Quad: Acc 5.Y,R_Quad: Acc 5.Z,R_Hamstrings: EMG 6,R_Hamstrings: Acc 6.X,R_Hamstrings: Acc 6.Y,R_Hamstrings: Acc 6.Z,R_AnteriorTibialis: EMG 7,R_AnteriorTibialis: Acc 7.X,R_AnteriorTibialis: Acc 7.Y,R_AnteriorTibialis: Acc 7.Z,R_Calf: EMG 8,R_Calf: Acc 8.X,R_Calf: Acc 8.Y,R_Calf: Acc 8.Z
0.16118788516587923,0.003511668701149214,0.16512414193645072,0.1993179531981395,0.16790447953684728,0.11460995847231424,0.12755368008898835,0.20807284930006756,0.2492973820215202,0.1777293123777904,0.12390167259975648,0.12362799356048573,0.48706929817886113,0.058303444126060366,0.48845406285407755,0.09603694734726244,0.35677808715974063,0.13343978429021724,0.16520773666379276,0.23236956350003402,0.4173541973328857,0.5443681066865258,0.151556796869776,0.2093030237831039,0.349228719654568,0.11794046144418449,0.1275367924610018,0.2979585434630872,0.5723549824479776,0.03179382676520164,0.37467392881660716,0.05078911648969912
0.16118788516587923,0.003511668701149214,0.16512414193645072,0.1993179531981395,0.16790447953684728,0.11460995847231424,0.12755368008898835,0.20807284930006756,0.2492973820215202,0.1777293123777904,0.12390167259975648,0.12362799356048573,0.48706929817886113,0.058303444126060366,0.48845406285407755,0.09603694734726244,0.35677808715974063,0.13343978429021724,0.16520773666379276,0.23236956350003402,0.4173541973328857,0.5443681066865258,0.151556796869776,0.2093030237831039,0.349228719654568,0.11794046144418449,0.1275367924610018,0.2979585434630872,0.5723549824479776,0.03179382676520164,0.37467392881660716,0.05078911648969912
0.05021438529004954,0.003511668701149214,0.16512414193645072,0.1993179531981395,0.7413363423351272,0.11460995847231424,0.12755368008898835,0.20807284930006756,0.6482758620689656,0.1777293123777904,0.12390167259975648,0.12362799356048573,0.48706929817886113,0.058303444126060366,0.48845406285407755,0.09603694734726244,0.35677808715974063,0.13343978429021724,0.16520773666379276,0.23236956350003402,0.3705821510343532,0.5443681066865258,0.151556796869776,0.2093030237831039,0.349228719654568,0.11794046144418449,0.1275367924610018,0.2979585434630872,0.5723549824479776,0.03179382676520164,0.37467392881660716,0.05078911648969912
0.038460129920865144,0.43782044547020943,0.2575093425259791,0.33725509388028735,0.48783058243813704,0.5085821699193767,0.1366661719597141,0.4025443752988441,0.3872284165042789,0.49743384360771326,0.2593805113705409,0.40682776999418957,0.12356478250057604,0.7070401039393944,0.2526185221460517,0.6142007845476078,0.12205777324543222,0.6506915328520496,0.23269039950201356,0.29381939430165943,0.25163276717971117,0.08523610798860896,0.1953394399151342,0.6204129422851757,0.39075766004163076,0.7448878962499286,0.3246379693966421,0.08467144128035849,0.23351363905332534,0.5822679448296965,0.6149409217361386,0.43135903516717716
0.05368393134787426,0.6961714215856994,0.12888888888888894,0.3780281217737848,0.17924937680285036,0.6604947089116183,0.22771291590136772,0.2684294810070935,0.3093233076336523,0.712025512203103,0.10174039050285241,0.39568959123188674,0.4374198334725114,0.6910164341460812,0.1057763617849149,0.697061853268676,0.3766768418735797,0.6802813938762861,0.1409295894942404,0.2501104073916146,0.5077374603322528,0.3332360599801409,0.3845258062531103,0.3325766346685053,0.7312660550634497,0.8468612742002605,0.6413926234672173,0.21166501380296762,0.1893442687497742,0.8561007180629601,0.11748874888909518,0.6448589048851959
0.06784194483711276,0.7515245009778346,0.3258239908073542,0.42043207078302225,0.14232576669015895,0.5180483794645669,0.3189832076584789,0.3615209958684263,0.20344827586206893,0.35968503879457886,0.1873925077941583,0.5680471168774476,0.8285003452123669,0.7979576197159713,0.2800656549238342,0.8851899827860071,0.20091367882803007,0.8454246006924709,0.03758876554535285,0.2332992585800589,0.2531593182938169,0.38792355998014094,0.2864541451104485,0.2414780254215681,0.5105544011835518,0.6504681018514732,0.5006127772136282,0.15394066265632714,0.34193068575665503,0.7556695648132019,0.11748874888909518,0.7615630137342737
0.06824257119045508,0.6805224089588019,0.13137954636290983,0.3959682540469237,0.31538814399488857,0.42338628401266454,0.25579608259586345,0.40885566444198534,0.3413793103448275,0.4392301232641353,0.16843467105449636,0.44441912331696176,0.8651638644065321,0.7505255328067498,0.2697729801321657,0.7029805010344665,0.20091367882803007,0.8538788466993955,0.17083605414662764,0.2383426032235256,0.23484566548107264,0.4582360599801409,0.7213051841389416,0.5921409601050918,0.5188024528989565,0.6844592278349172,0.6413926234672173,0.191873807695548,0.2256371869423997,0.8108602831606437,0.11748874888909518,0.8439423846865638
0.036192462923067464,0.7252306653909111,0.2258239908073541,0.37313535842656514,0.3380779385268949,0.41392007446747436,0.1715465825123764,0.3820326855836352,0.31826289926289936,0.5478770679054807,0.09260332409584889,0.4235350381376439,0.12356478250057604,0.7918366902307373,0.21522180373632288,0.697061853268676,0.26316970899252556,0.7162119394057161,0.4638073150148192,0.20472030560041424,0.37821242632661967,0.36969439331347426,0.116023761291875,0.770030670354769,0.3320665620621938,0.6750172483950716,0.8947963467236772,0.16878406723689177,0.5823014713536097,0.8856534434719758,0.11748874888909518,0.6654537476232685
0.10538063414529049,0.7103279132468746,0.044157324140687536,0.4024919385098833,0.19575217183673577,0.45020721105737027,0.12942183247063294,0.4041221975846295,0.7517241379310342,0.48579309953899763,0.061006929529745645,0.4207504934470682,0.5250369210053348,0.767919704353692,0.2800656549238342,0.6635228492625292,0.3130220747165428,0.8644466542080516,0.6406956234635387,0.20303919071925866,0.6851460699356066,0.3254235599801409,0.502516071973661,0.7935906555048391,0.9699708817315944,0.69956639493867,0.7962504543461653,0.26774009777398977,0.4489577703227624,0.8699657339786757,0.871860161783486,0.7043551172396276
0.05087954687447786,0.8103892490711189,0.28137954636290974,0.36661167396360556,0.08560128036014322,0.4896497508289962,0.052193124060769674,0.4372564655861208,0.6148146234008304,0.5381764478482178,0.03572981387686306,0.4207504934470682,0.73275814545877,0.8370945056965912,0.20458603978493214,0.6852245577370948,0.2929808093299641,0.6633729018624366,0.8341672108293255,0.20303919071925866,0.2531593182938169,0.11969439331347426,0.8302668100863023,0.6412360848677199,0.6816252037853779,0.6957896031627319,0.6132366542164994,0.2067172122761127,0.3913520993593971,0.8901356461843475,0.7830485726313164,0.8283703412424737
0.03779496833643682,0.8353003805488984,0.3424906574740209,0.2883274604080904,0.08230319917670408,0.5148929762828369,0.14346341581788066,0.4199004204424825,0.3665387613318651,0.5265357037795022,0.04836837170330435,0.43188867220937105,0.12356478250057604,0.8606096067287673,0.23203317256271472,0.6753601447941106,0.6436995749422052,0.6739407093710926,0.8231116915512805,0.23498037346121445,0.5231057382862723,0.07021522664680756,0.7384966034147629,0.6192467653943213,0.4154543649049355,0.6750172483950716,0.24214133555617293,0.2891805710570277,0.24617720091317383,0.820243096363988,0.30386250859920844,0.6434629241742315
0.03966200898089219,0.8465816471352072,0.03500000000000003,0.4302175974774616,0.15655958227084396,0.5117375731011069,0.11538024912338508,0.3394314838674321,0.295530204185376,0.5071344636649763,0.016771977137201122,0.6666142082227517,0.6910533224552214,0.7853138759006341,0.17508037204881585,0.8575696265456512,0.43225600424203714,0.6718271478693613,0.7291397776878984,0.33416615144939316,0.6851460699356066,0.7731770833333333,0.8399509513357178,0.24304869109823943,0.5745530724707599,0.7043716662124775,0.23848141561771377,0.2561952275446617,0.3542864423668056,0.21114156024533468,0.37467392881660716,0.38513505479950316
0.032186199389644,0.8040023552951033,0.02639823141486808,0.8337462672209601,0.07095830191070075,0.7393797884548703,0.03299772086603249,0.2636960141497376,0.28965517241379296,0.4314696272183249,0.18107322888093766,0.6192769484829646,0.5281517011360741,0.7179114611562333,0.14591779347242192,0.7885187359447609,0.9790746914561457,0.631669479336469,0.34219660295632465,0.8711932183391505,0.46816477984803967,0.9513993566865259,0.7778266919882798,0.2093030237831039,0.7687184198757194,0.7062600621004467,0.29831285027548915,0.2611430290715166,0.2846328200429874,0.6319905824443842,0.06280248090046271,0.8832899218773337
0.02978244126958995,0.8529685409112228,0.4880648980815347,0.8158061349478214,0.03692361011269129,0.7141365630010297,0.04563514587855557,0.2068944118614668,0.19208192832330737,0.311181938508264,0.13683827648839328,0.5830778675054801,0.20669735912494566,0.6396376891949935,0.07263000127067176,0.7628712622930017,0.25556913977974505,0.7080431030799444,0.5063145016336263,0.7736885552321275,0.36043741036130916,0.1301110599801409,0.12888023052524983,0.1837678841705457,0.7740796534907325,0.6892644991087246,0.38432898027229784,0.33536005197434016,0.58545205219798,0.6929187268400007,0.25192362523843004,0.6265523780069092
0.12216687835033478,0.7933575323350773,0.4630648980815346,0.8353771883367002,0.17182249958176737,0.6310806363460162,0.1570264678132234,0.24318432443452867,0.0965517241379311,0.3674455348403893,0.08560034125697336,0.5677628717073138,0.07853541322038086,0.7526998042501176,0.03626255034010983,0.7273593756982583,0.25556913977974505,0.49640154322567365,0.12661397703444785,0.39426092655531536,0.2531593182938169,0.14313189331347423,0.5600518209875222,0.32315264060847737,0.9250952703754606,0.429694346066857,0.465417815650231,0.33206151762310354,0.2523558856371795,0.8717884275562603,0.10760479286615462,0.5075599532980456
0.03368574849033123,0.767809957231015,0.3530648980815347,0.8060206082533821,0.06868932245750023,0.4864943476472662,0.07698944273391072,0.23529521300560216,0.07484054901296244,0.46445173541301904,0.12920336575819574,0.5524478759091471,0.2654931214814973,0.8871027488940497,0.06954219883317121,0.7194678453438708,0.25556913977974505,0.5703761957862649,0.6462233831025612,0.7501529468959497,0.33454734594104185,0.20302772664680757,0.6795014705544875,0.08048479356275669,0.2800275657623224,0.7713254386814961,0.07827323845286147,0.3337107847987218,0.3728192708631014,0.8874761370495605,0.09872363395093767,0.585362692530764
0.4585810834547291,0.7629155844207218,0.5075093425259791,0.7603548170126648,0.1747114178964492,0.5148929762828369,0.21367133255411985,0.1690266770026195,0.5275862068965516,0.43728999925268275,0.17280639025941813,0.513464250241087,0.25903722665771495,0.7613968900235887,0.1402185657359613,0.6247694810912214,0.9552965429313517,0.6126474258208885,0.41405747826361683,0.5862442459832815,0.2714729711065611,0.08523610798860896,0.30677469087343234,0.14566741914461692,0.21823723836527642,0.8147585441047857,0.1583773270352875,0.36669612831108783,0.38872607770980155,0.8762706302686318,0.1612089306044283,0.6402822731656242
0.43147458254970594,0.8515858368020788,0.7536204536370903,0.6364048122164325,0.5814786788808441,0.7393797884548702,0.29090004096398314,0.07356842871260875,0.3655172413793104,0.35968503879457886,0.49572154272499297,0.4689115351918754,0.11005518092025539,0.6787745751756135,0.27848349710404097,0.5695287686105093,0.8033115284105963,0.7270651565955251,0.8512749844094624,0.07914102397809313,0.2531593182938169,0.8151041666666666,0.8799365413854601,0.1172383703968658,0.14838866038446316,0.2993950297969885,0.1275367924610018,0.6723421923284414,0.6550891552728111,0.5606937468250408,0.2895098843428318,0.4423199600990561
0.07117539977268109,0.7188437716148954,0.8008426758593125,0.5183261234368638,0.3312710001672929,0.7378020868640052,0.2628168742694874,0.05384565014029249,0.41379310344827597,0.37326590687474703,0.8748782775182313,0.41322064138036096,0.09008383569600022,0.4983100453760886,0.42635492494434457,0.545854177547347,0.25556913977974505,0.5936253723053078,0.5583037235412708,0.6307937903339041,0.7066021844047573,0.38531939331347426,0.06751665205120418,0.16137407591133024,0.342300356213628,0.4769042432660847,0.338715954022001,0.21166501380296757,0.7573754621612364,0.7018831322647437,0.33938714426007627,0.6430167565998206
0.036192462923067464,0.6820149299245243,0.26166666666666666,0.22145969466275447,0.3896445270890286,0.7078257566375694,0.2768584576167353,0.1358924090011282,0.33001296280606607,0.10709484543218335,0.13931421201934877,0.2606391737389641,0.08148044242939216,0.3617657987325926,0.189833205916874,0.7615326791983886,0.20091367882803007,0.5323320887551036,0.15419621262789437,0.03916997673092478,0.399255999259115,0.44781939331347426,0.5174442250328788,0.7181987030246151,0.6034212534746765,0.6684921443410645,0.31055998477128316,0.17703040311498328,0.5669192237016843,0.4166505546075688,0.2530336959410479,0.13361476305289513
0.08106261449741013,0.3215789787467257,0.861398231414868,0.12197350660262064,0.16790447953684728,0.6105705156647707,0.5118157130071842,0.312608505009082,0.8941249682284165,0.24288957330513258,0.8571842965612135,0.1924178288198589,0.17359592938800505,0.5309241170266051,0.49964271714609465,0.873352687254426,0.46220961525221543,0.8182337108511188,0.9391946439707528,0.07174411850100862,0.1809819807377074,0.5034748775198591,0.09595677582002204,0.6726493984011467,0.5290362470503907,0.3332175926726629,0.1275367924610018,0.10281338021215977,0.47541338300122454,0.7458683438312568,0.8496572644954435,0.7661396454538453
0.030583693976274622,0.6884018237005399,0.7808426758593126,0.2606018014405121,0.6505771642071018,0.17100707543386176,0.12755368008898835,0.5679741126876949,0.2492973820215202,0.3847405443997825,0.12390167259975648,0.15928174700200776,0.126065671304193,0.26855549269972373,0.14729015011131102,0.4346684689852934,0.6740491123236175,0.833028641363237,0.19568269122139587,0.2332992585800589,0.21805856378243416,0.2082360599801409,0.2054255223496442,0.7558946792647271,0.31458690244986814,0.5090069733615595,0.192868389367417,0.18032893746621992,0.558147555826058,0.8399946007910586,0.3358187844007488,0.855383963985493
0.04821125352333781,0.7018120548788538,0.38473156474820136,0.28017285482939086,0.3896445270890286,0.15738579579281872,0.3728040378694306,0.6593300230346638,0.5044697958146238,0.7663489845237758,0.2774163442903861,0.1680530627773213,0.09008383569600022,0.4944622956656349,0.16375842977798058,0.0579011269096851,0.2232667206254278,0.85627781788228,0.4620924245214466,0.2803704752524149,0.2150054615542228,0.30719439331347426,0.07498072858081299,0.38754993335200194,0.22524808232337046,0.22971322153092844,0.18864499397980916,0.2314562199103872,0.7979921693903773,0.7548327492559999,0.14685630634805166,0.8347891212474204
0.039125291505293466,0.7515245009778346,0.25528712030375694,0.27854193371365094,0.3364288979351753,0.6952041439106491,0.6278980412979317,0.35994317358264105,0.6458491061594511,0.75470824045506,0.5475914058477349,0.22722463745205543,0.3220767620574641,0.8436173200266945,0.43788666839608387,0.3322758626371162,0.2968708651393842,0.8116076166647722,0.1901266502815405,0.38291848300290465,0.17945542962360178,0.30198605998014094,0.05244011809802266,0.22420070297818348,0.4499312210753272,0.7383627921959216,0.23285022176757028,0.2974269069351192,0.5915678856017577,0.6763942017894983,0.2194121657620123,0.8649833949990472
0.04220185822320264,0.8252920012151552,0.028888888888888915,0.2377689058201535,0.5899346578321657,0.6026820077104454,0.21600111787166437,0.3567875290110704,0.512771583495721,0.8276708562144104,0.5412721269345142,0.2286169097973433,0.09777385101620957,0.8088289769328102,0.7672522617294746,0.49977359440898983,0.2712928173386847,0.8411974776890085,0.2150581312588074,0.4064540913390826,0.3238101047358207,0.03359375000000003,0.620506337694212,0.2666086762483094,0.3769421734183278,0.7326976045320142,0.08784698012637367,0.3502034565549048,0.28733499613891705,0.9237521665271338,0.28506930488522336,0.8993081328958346
0.048475788754423786,0.8409410138420529,0.05833333333333332,0.24429259028311312,0.8741770283437263,0.31294717265211175,0.8240016768074965,0.32838672786693496,0.893103448275862,0.7306646556417804,0.5349528480212936,0.21469418634446466,0.10705892786879023,0.3035612629379447,0.13460031789622143,0.7826000881789703,0.46220961525221543,0.96406945447057,0.2205858908978299,0.37619402347828235,0.2424759407733391,0.22646522664680757,0.13543524528750264,0.6298369363452038,0.3914463243887754,0.4183639707390424,0.27536502320788586,0.32876298327186687,0.8369111092325981,0.9282343692395052,0.29458483229438437,0.9523855652453196
0.07785760367067138,0.8140107346288464,0.3424906574740209,0.2361379847044136,0.8729371506207643,0.2766600360622158,0.22326117522124095,0.7319098481807876,0.48518537659916927,0.7539461437792115,0.7118926575914717,0.28848462064472136,0.09777385101620957,0.7979576197159713,0.13460031789622143,0.7477225010782106,0.5638935982080098,0.7035305703953291,0.16530829450760526,0.4266274699129495,0.07370388867021517,0.41136105998014094,0.18132034862327248,0.3388592973751906,0.32876113135169954,0.5278909322412507,0.11346820001625875,0.340307853501195,0.3003857242648387,0.8579234116405448,0.27872561994578265,0.9684037762638203
0.6702478891417438,0.8161396992208517,0.6424906574740209,0.24103074805163333,0.801569685841306,0.43600789673958484,0.5506693328880685,0.7539993601817818,0.7231164110819279,0.7403652756990434,0.9077903039013114,0.26899280781069124,0.08063168782075268,0.8519125209552962,0.4872915073960924,0.6181465497248015,0.2133173432685083,0.726779746914372,0.17083605414662775,0.36442621931019337,0.11033119429570357,0.08523610798860896,0.2862005848193178,0.32158197493180596,0.2800275657623224,0.5713240376645402,0.21905308470645024,0.3551512580817597,0.5621006882926475,0.7772437628178576,0.34533431180990976,0.9729804079833919
0.03368574849033123,0.7373680093166594,0.8313795463629097,0.22961430024145402,0.33972697911861444,0.4580957190116955,0.12755368008898835,0.817112251613194,0.6079180716766927,0.7151436635501597,0.7308504943311335,0.28291553126356994,0.12969238409917702,0.8606096067287673,0.8221465272850398,0.6516855537309482,0.49451203440653263,0.8583913793840111,0.12661397703444785,0.36442621931019337,0.34370417234741396,0.38792355998014094,0.08955014195173297,0.37969660496864527,0.3848478830164516,0.5278909322412507,0.1979361077684119,0.3650468611354696,0.7666418764093844,0.865065123487703,0.30727220217326573,0.9661154604040346
0.03368574849033123,0.7629155844207218,0.16512414193645072,0.2214596946627545,0.5961216573302865,0.49596055719245635,0.5436485412144446,0.5113302926280026,0.8492973820215203,0.7151436635501597,0.5223142901948523,0.24810872263137337,0.13834700120823884,0.8845265926058126,0.7981302861044799,0.8181119747737139,0.30288268312930383,0.9260253474394089,0.17636381378565014,0.3930051722898381,0.2063872719952844,0.34365272664680757,0.18787536338552532,0.3718432765852886,0.25988989952807023,0.49201141036983764,0.18385812314305297,0.3749424641891793,0.5280002838594635,0.8408314163482609,0.25557116991682416,0.9798453555627498
0.03368574849033123,0.8523320972849401,0.9591573241406876,0.27364917036643127,0.4861815418464173,0.3697444299232532,0.16007405015862547,0.7208650921802905,0.3665387613318651,0.8237906081915052,0.14471148711275267,0.3580982379091144,0.12969238409917702,0.7135629182694978,0.42416310200719265,0.6142007845476078,0.3291732842937014,0.690849201384942,0.13214173667347034,0.3442528407363265,0.25163276717971117,0.36448605998014094,0.18132034862327248,0.35142462278856124,0.3848478830164516,0.4863462227059303,0.21905308470645024,0.3551512580817597,0.2383007488022482,0.8986816438304894,0.2755537774760623,0.9615388286844629
0.03368574849033123,0.844452682543202,0.7702684352517986,0.3323623305330677,0.188945233477134,0.3050586646977866,0.23473370757499165,0.2479177912918846,0.1803318647801412,0.4081881390808937,0.27391485287094847,0.35252914852796297,0.2494180077598006,0.6766003037322458,0.48845406285407755,0.5629058372440894,0.2133173432685083,0.8837541174047853,0.02987818335155433,0.4249463550317939,0.17945542962360178,0.2863610599801409,0.08955014195173283,0.32786463763849133,0.7617075759176254,0.49578820214577585,0.1205071923289382,0.36669612831108783,0.3003857242648387,0.8332712967225014,0.21687469178623603,0.9249257749278895
0.9135641767428038,0.5549134980304953,0.34611111111111115,0.39107549069970393,0.38118854813770703,0.5200792673246296,0.4804614161518292,0.16236333768086736,0.32413793103448263,0.5420566958711229,0.15798197283051596,0.40822004233947745,0.5508417410070366,0.5736057762042217,0.27848349710404097,0.6852245577370948,0.25556913977974505,0.9577287699653764,0.0762548017176773,0.9081777457245731,0.16266832792496322,0.2420902266468076,0.19443037814777814,0.24933135380492474,0.2697112910937341,0.41647557485107317,0.19089711545573243,0.9626132152372622,0.24617720091317383,0.8713700197776594,0.17468918693895552,0.8379697722560276
0.11952274441827529,0.7096914696205918,0.8747315647482014,0.3399196625860762,0.6648109797877867,0.5411516456667088,0.9789376249791282,0.12780360514860944,0.1724137931034486,0.58473942412308,0.2569045758395854,0.40125868061303815,0.6332867852252814,0.7649416632205854,0.09321535085400867,0.5017464769975868,0.63607263599457,0.9809779464844194,0.45490633699071736,0.8611065290522172,0.17945542962360178,0.14834022664680763,0.21409542243453664,0.21163537756481285,0.439697426923893,0.3012834256849577,0.06419525382750256,0.9180830014955681,0.2767563679320617,0.9237521665271338,0.008881158915216956,0.7807618757613817
0.02510336913831139,0.5734377357322592,0.32611111111111113,0.43514914653412895,0.1866762540239332,0.4675619285568857,0.5810822849001086,0.2368730352913875,0.2068965517241379,0.6957424234356338,0.3264166438850125,0.5583012104604326,0.451650619077367,0.7196838477547316,0.45390498447004374,0.46031594263705256,0.974773001539102,0.7077576933987914,0.3725427183692824,0.8005863933306167,0.19723044558891228,0.15875689331347423,0.3255306733928348,0.1755100670013722,0.8846035464771557,0.36737728176387646,0.06419525382750256,0.8554108488220726,0.43768417060013626,0.8497958217730038,0.02497822236815555,0.7578787171635234
0.05194533481224851,0.5968563462443164,0.3980462130295764,0.5902497446409933,0.16501556122216546,0.6184590236190959,0.4664198328045813,0.21320570100460795,0.23205600271117555,0.5789190520887224,0.5728685215006175,0.38455141246958385,0.44656077132459093,0.663554675072039,0.07537471454845002,0.5352854810037334,0.2655185171366646,0.9704101389757634,0.4350064022902364,0.7266173385597716,0.35128058395493705,0.3931318933134743,0.31897565863058197,0.13467275940791762,0.4401098295096632,0.342828135220278,0.0696860238955266,0.8224255053097067,0.3498071378675807,0.800491591936917,0.05273191813999275,0.7075357682482348
0.08450800113615432,0.4989239750120773,0.753601768585132,0.09328868782032222,0.17760033621113078,0.7046703534558395,0.8127684101296982,0.18796054443204313,0.2655172413793104,0.5401165718596704,0.12390167259975648,0.41211261420520706,0.5484113243613312,0.728782818373072,0.22197868634031648,0.5890603062376182,0.3430706928418808,0.6422372868451249,0.5732003932657985,0.6795461218874156,0.3238101047358207,0.41396522664680757,0.43041090958887984,0.10058931422414971,0.5600427114759801,0.33716294755637066,0.4165679211285039,0.868604986227019,0.5141006624872417,0.8453136190606323,0.19578201352438002,0.6709227144916614
0.02136928784940067,0.6358141525266928,0.16512414193645072,0.2630675759688457,0.34261589743329607,0.16969186820156607,0.7041854048644799,0.10922721237135659,0.1438060662543418,0.3344634266456951,0.8919030258119612,0.45109623987326725,0.44024901550130957,0.5983265317710059,0.48845406285407755,0.4347808878093436,0.2071155110482692,0.559808388277609,0.9070770754627565,0.7955430486871501,0.2531593182938169,0.32802772664680757,0.21409542243453664,0.06273627141637063,0.7162670209900777,0.323944176340587,0.1275367924610018,0.8207762381340883,0.17096534287832757,0.7772437628178576,0.29030291912204614,0.6297330290155163
0.05902816506358115,0.7741968510070305,0.32388888888888895,0.25815541976690226,0.22297992527514343,0.3097917694703817,0.3419125545054852,0.3820326855836352,0.3275862068965516,0.2937208224051906,0.4654407799758666,0.39429731888659886,0.7135197076629413,0.5251195230171204,0.09596006413178691,0.5056922421747804,0.2394179302025864,0.9302524704428711,0.3747538222248914,0.295500509182815,0.0015265511141056242,0.29417355998014094,0.07644011242722745,0.16451540726467287,0.966335528952484,0.27144677065504574,0.31520643182591984,0.2693893649496081,0.32355175988520823,0.7974136750235293,0.15058318416908098,0.5519302897827978
0.0418012318698603,0.8012369470768153,0.27055555555555555,0.11740692747854892,0.3312710001672929,0.5395739440758438,0.39152090971226267,0.7287542036092172,0.44482758620689633,0.594273937636663,0.4495908066584822,0.13700538947740198,0.9777653091527062,0.6344853766185192,0.11572594741686106,0.3636446957958064,0.20524173847992896,0.5153603476530411,0.8064718500325473,0.19295250143232523,0.6328982957345421,0.17698605998014091,0.25131062568541407,0.1896460580914142,0.36010993789456985,0.1286840415245811,0.2180683379109434,0.1555899298319454,0.3301937653216213,0.790690370954972,0.1528034738978852,0.7180850123983427
0.0534193961167883,0.8153934387379905,0.9702684352517986,0.0725565967957017,0.4174922193889171,0.4612511221934255,0.4645371431179514,0.7003534024650816,0.6482758620689654,0.6171674009718036,0.5924065100972687,0.21887100338032825,0.7815871473767684,0.6240159042465498,0.13460031789622143,0.5214753028835553,0.33283629413948196,0.6953617340695575,0.7644608767759765,0.27364601572779257,0.8704371454527833,0.16396522664680757,0.151556796869776,0.5674147980641674,0.31499309501130607,0.6221421635319365,0.9986925853870942,0.02909113746202176,0.43768417060013626,0.8049737946492886,0.03964803087150424,0.6173991145677657
0.032186199389644,0.6954251611028383,0.3424906574740209,0.2345070635886737,0.14459474614335957,0.4659842269660207,0.3543107138420558,0.6609078453204492,0.2630904854697961,0.14976362075540792,0.2885009704056886,0.22444009276147972,0.6483326738203665,0.20086971192337774,0.17988362028492785,0.4918820640546024,0.47836082482937403,0.5576948267758778,0.5908892241106705,0.2870949347770372,0.756874130072478,0.48688189331347426,0.151556796869776,0.636524087837706,0.7065218999172356,0.7845442098972799,0.4904773404116381,0.13085092219767092,0.4866869827238508,0.8355123980786872,0.41828668861347756,0.38627921272939614
0.016561771609292543,0.48146421960631597,0.47250934252597915,0.31442219825992873,0.08395223976842364,0.6967818455015141,0.2216177512105635,0.35836535129685576,0.5734353130560028,0.6557619158709777,0.5696571060096743,0.4235350381376439,0.5535267840353342,0.7022896762077895,0.33495992047939926,0.6694414970283199,0.6374977427219662,0.6654864633641678,0.2769124766141935,0.2803704752524149,0.8322832887131891,0.42959022664680757,0.17461695296705598,0.3844086019986592,0.632289434478593,0.7656602510175888,0.3527939386473599,0.1489928611294722,0.30826217637576436,0.6965641139951702,0.72278356570663,0.4617936361023287
0.08450800113615432,0.6266618505323891,0.13000000000000006,0.35845706838490604,0.07714530140882173,0.6715386200476735,0.1504842074915046,0.2700073032928788,0.15759916970261767,0.7442455237219486,0.18073137691811042,0.3984741359224624,0.4667018674705741,0.47924239556206055,0.08439993329168137,0.7575869140211949,0.25556913977974505,0.7098712549005225,0.11881855093815046,0.26524044132201474,0.48822043851386304,0.30198605998014094,0.24687049624580082,0.3184406435784633,0.7394378362860328,0.786432605785249,0.5780416926531021,0.1984708763980212,0.2798457102940645,0.7556695648132019,0.11748874888909518,0.6883369062211269
0.018292721131491513,0.8210340720311449,0.3258239908073542,0.41064654408858275,0.12768278824071685,0.47229503332948086,0.20665054088049592,0.3946552638699176,0.06206896551724143,0.33058317862278996,0.19371178670737896,0.6777523869850547,0.12969238409917702,0.7501236479618805,0.24404129315299453,0.785207270261551,0.843214516777694,0.8094940551630411,0.1100306981173804,0.23498037346121448,0.5414193910990165,0.3827152266468076,0.4223965109802128,0.2885979957217081,0.8705818585609676,0.6674636648431951,0.6273146388418583,0.18527673899307479,0.3961392091083199,0.773598375662688,0.11748874888909518,0.7661396454538453
0.04660874810996843,0.7635520280470045,0.10360176858513204,0.39433733293118384,0.07198740364093939,0.40918696969487917,0.23473370757499165,0.3836105078694205,0.11136634753876146,0.43728999925268275,0.15579611322805506,0.4374577615905225,0.1164464524062786,0.6505090464118325,0.3178054624932852,0.7753428573185667,0.7235055516764007,0.8264025471768904,0.25375244873196484,0.2517915222727702,0.2531593182938169,0.08523610798860896,0.5049896969845985,0.7778839987381259,0.31499309501130607,0.69956639493867,0.7821724697208063,0.22485915120791403,0.12725929328718374,0.7705204587493002,0.11748874888909518,0.8347891212474204
0.9245095323918766,0.7209727362069005,0.20915732414068744,0.3698735161950853,0.13098086942415574,0.4565180174208304,0.18558816585962412,0.3741435741547087,0.123116411081928,0.5827993001116275,0.029410534963642414,0.44024230628109823,0.12969238409917702,0.7635711614669564,0.18708849263909574,0.6871974403256916,0.9866752606689262,0.6866220783814796,0.4638073150148191,0.2282559139365922,0.25163276717971117,0.4243818933134743,0.14486582624578745,0.7810253300914685,0.32876113135169954,0.6920128113867936,0.7821724697208063,0.208366479451731,0.45822418457091035,0.9054049478990466,0.11748874888909518,0.7661396454538453
0.5747627259240092,0.7507782404949734,0.14249065747402095,0.43674128194042117,0.09591707589590791,0.4691396301477507,0.11538024912338508,0.4183225981566972,0.5551724137931033,0.561457935985649,0.08628404518262824,0.4304963998640833,0.1501137185489789,0.7853138759006341,0.2526185221460517,0.6950889706800791,0.7899841625533754,0.7310068699178344,0.6683344216586511,0.20976365024388094,0.5414193910990165,0.35667355998014094,0.5615112048339365,0.43309923797547045,0.3115289132908361,0.6617984771792879,0.6413926234672173,0.2561952275446617,0.2798457102940645,0.9237521665271338,0.7354709355855115,0.7112200648189851
0.2853820547020063,0.778454780191041,0.2702684352517986,0.3176840404914086,0.25350575989699053,0.4864943476472662,0.22771291590136772,0.40885566444198534,0.6137931034482758,0.4799727275046398,0.10524188192229003,0.6777523869850547,0.09777385101620957,0.8588372201302688,0.2560494137432745,0.8674340394886354,0.46033584268387523,0.6358966023399314,0.8673337686634605,0.21648810976850325,0.2531593182938169,0.14834022664680763,0.5746212343584421,0.6396654191910486,0.14895360395587678,0.6617984771792879,0.592119677278461,0.208366479451731,0.4515837919723579,0.8579234116405448,0.7513301479341132,0.7249499599777003
0.02870900631839248,0.8118817700368414,0.12026843525179871,0.34704062057472673,0.44987787059520723,0.4864943476472662,0.24175449924861558,0.3820326855836353,0.3665387613318651,0.4450504952984931,0.22530818127348218,0.6888905657473576,0.09574219975359691,0.834518349408354,0.24918763054882884,0.7990174483817292,0.25556913977974505,0.7056441318970602,0.8618060090244379,0.2534726371539257,0.5169481504233682,0.07021522664680756,0.4894060424491553,0.5093001680273281,0.3251381986212538,0.6183653717559984,0.2097619709178475,0.28258350235455454,0.5303483130816145,0.8265479926539442,0.2888755158488877,0.778473559901596
0.008949870895787974,0.8217803325140061,0.07026843525179867,0.4448958875191206,0.48267268467025465,0.5180483794645669,0.09734973858742005,0.3346980170100762,0.8886336524612384,0.512954835699334,0.031596394566103234,0.6693987529133274,0.0939288433561049,0.7266085469297043,0.11812757153491707,0.8595425091342479,0.46793641189665575,0.8369703546855463,0.7844173740781231,0.3274416919247708,0.36305960311157354,0.7752604166666668,0.7953768509523986,0.26346734489496676,0.1938292153120108,0.5637704541126637,0.08531223076554093,0.2298069527347689,0.43505814895054074,0.48365948515752294,0.3516780709111347,0.4846767947001872
0.11479535344883562,0.8210340720311449,0.1969537869704236,0.8076515293691219,0.34261589743329607,0.6952041439106491,0.08822270941170893,0.24318432443452867,0.3872284165042789,0.392667146989273,0.14315755540161376,0.6025696803395102,0.15492332799793607,0.6222435176480515,0.1332234945626975,0.7806272055903735,0.2170648884051887,0.6869074880626327,0.3604099284642659,0.8829610225072396,0.399255999259115,0.7026041666666668,0.16165530433651398,0.2093030237831039,0.3182098351803139,0.5826544129923549,0.3060557418194365,0.3452556550280499,0.24617720091317383,0.7377407539637159,0.23428818110678495,0.8096176467897763
0.02870900631839248,0.8593554346872386,0.4430648980815347,0.8321153461052203,0.3925334454037102,0.6952041439106491,0.043289642700515836,0.22267263471931978,0.2492973820215202,0.3538646667602211,0.061006929529745645,0.5691551440526016,0.06648577767676096,0.6244177890914192,0.03763490697899896,0.731305140875452,0.3727392825065797,0.7545414561180304,0.5151589170560625,0.7148495343916826,0.36043741036130916,0.20563189331347428,0.12888023052524983,0.15439643601679182,0.22468313875195678,0.6854877073327865,0.5287687464643461,0.3419571206768133,0.7139772178197905,0.800491591936917,0.2609950947018302,0.6151107987079799
0.0534193961167883,0.7976154615190877,0.4808426758593125,0.7897113970959829,0.16109754117724537,0.7456905948183304,0.054522909378314124,0.2116278787188227,0.5803318647801408,0.392667146989273,0.027462975255343403,0.5371328801109807,0.059862811830311835,0.8244507618812539,0.023911340590107667,0.6918474891035147,0.30889450111922334,0.5492405807689531,0.12987407021619543,0.38417423726838196,0.1809819807377074,0.26031939331347426,0.6236354641813746,0.3624192825252606,0.37396666477644974,0.5429980993450035,0.24720905395716808,0.33206151762310354,0.7201542897059354,0.8453136190606323,0.07461763118106308,0.4228922664859695
0.040463261687576885,0.8140107346288465,0.43417600919264576,0.7717712648228442,0.3374579996654137,0.4864943476472662,0.11538024912338508,0.17849361071733133,0.6906766923663478,0.4178887591381568,0.05210816301690393,0.513464250241087,0.1714484309451794,0.884928477450682,0.09458770749289779,0.6563356025087711,0.2770671175407049,0.500628666229136,0.9115558457756402,0.54051792121585,0.25163276717971117,0.2707360599801409,0.5746212343584421,0.10027518108881546,0.2322589262814645,0.6769056442830407,0.24720905395716808,0.32711371609624856,0.6230124555630929,0.8870577292709596,0.10379858190249021,0.5693444815122632
0.0418012318698603,0.7778183365647582,0.615287120303757,0.67554691899419,0.6223203090384556,0.5101598715102417,0.24175449924861558,0.10796495454272835,0.2492973820215202,0.3441640467029581,0.15195276984579006,0.463342445810724,0.1862760246751437,0.6896459323924523,0.27985585374293004,0.54388129495875,0.5581668015635695,0.45624387469278127,0.19847485234174006,0.08203840620039181,0.11033119429570357,0.08523610798860896,0.5915158918463357,0.16765673861801553,0.2800275657623224,0.6666037484530953,0.6551897605283372,0.4758135801658796,0.6843246922257173,0.8848166279147739,0.21386151560178596,0.652170020038964
0.03499058386304042,0.7805837447830462,0.16512414193645072,0.5514338220863837,0.6080864934577708,0.7157142645918947,0.24877529092223952,0.018817995395858794,0.352745657883589,0.31506218653116913,0.9488138408029129,0.4396738159408303,0.059862811830311835,0.5004843168194563,0.4359271125005962,0.5399355297815563,0.46793641189665575,0.8689591868926672,0.16520773666379276,0.24443410372001992,0.1987569967030179,0.22906939331347426,0.151556796869776,0.12524876534788962,0.5621809948976529,0.2344342112508512,0.1275367924610018,0.6434800167551211,0.6112739222901984,0.5875869630992699,0.37467392881660716,0.3281329986957428
0.038596221043121534,0.6706238464816371,0.36833333333333335,0.3889746861039659,0.16790447953684728,0.7488459980000605,0.12240104079700902,0.0925022961420324,0.376883588918072,0.46639185942447176,0.6309541114679146,0.49397243740705693,0.07582207837179551,0.5309241170266052,0.22702012314569864,0.6885360234203048,0.1496625761114714,0.4816066127135554,0.049225342088133034,0.291841543368607,0.18250853185181304,0.9531250000000001,0.12676534520261037,0.3420006287285333,0.34278281926788756,0.7081484579884157,0.20497510008109135,0.2627922962471349,0.6365563267765154,0.6566426973624274,0.1826981262558915,0.3704898332968738
0.23917393294538017,0.6500804610444463,0.7652871203037569,0.03834603907461144,0.6994656104472773,0.7220250709553548,0.16849900016697433,0.21005005643303734,0.6137931034482758,0.10775448759607723,0.25179737667467617,0.21887100338032825,0.07876710758080681,0.33371769711314847,0.41387042721552414,0.6654957318511263,0.1372589116709933,0.5302185272533724,0.44111521919399416,0.075778794215782,0.2729995222206667,0.40615272664680757,0.5043341955083732,0.6836440581378459,0.3151518460212818,0.36758639783370073,0.5643867596947723,0.14239579242699898,0.6190577102586425,0.46461012362994397,0.4744283003275276,0.5597335549011627
0.03368574849033123,0.6003680149454655,0.5686204536370902,0.17253206119055753,0.16790447953684728,0.30190326151605645,0.12755368008898835,0.7366433150381436,0.7010215199525547,0.4295574090643375,0.12390167259975648,0.13101861839266418,0.07853541322038086,0.5466118408626572,0.5099353919377632,0.7319394403694358,0.46793641189665575,0.85627781788228,0.7954728933561682,0.035975858456729196,0.17945542962360178,0.13212852335319245,0.10921518623849147,0.7747426673847831,0.1629752918720648,0.5457464116230725,0.8051202967884094,0.18362747181745648,0.2829350526560673,0.7713572743065021,0.7703612027524351,0.7089317489591993
0.5485935688479272,0.6734990715565036,0.7858426758593124,0.30952943491270907,0.8038386652945065,0.0896087172563617,0.12755368008898835,0.5144859371995731,0.5148146234008307,0.5924999201688904,0.5816637359447936,0.18267192240284388,0.09777385101620957,0.19310827361486207,0.03523328286094298,0.1391306572134835,0.31687509879264286,0.807665903342463,0.17636381378565014,0.28877604965819276,0.11033119429570357,0.17959022664680754,0.06882765500365474,0.7684600046780977,0.21823723836527642,0.18401404104207603,0.42318386177415446,0.09291777715844997,0.40092631885724267,0.6360543773781546,0.08825655380086055,0.8901548694566912
0.7241963557207042,0.6940424569936943,0.1969537869704236,0.2671254859034716,0.16790447953684728,0.43600789673958484,0.7051267497077949,0.3946552638699176,0.8803318647801408,0.764408860512323,0.3453744806246743,0.16860997171543646,0.20890948090553052,0.8171241778614119,0.37956151124329596,0.16931576081901548,0.2493673075595059,0.7231234432732159,0.6196335742335874,0.3341661514493931,0.10727809206749225,0.24729855998014094,0.03277507381126416,0.36084861684858927,0.11093629557219345,0.3560469064360618,0.3280170417708624,0.31721811304253883,0.3715832113507281,0.5688213366925818,0.2695272767835937,0.8622489115648505
0.9632418445572548,0.7884631595247842,0.10888888888888892,0.23124522135719391,0.5802388011578821,0.6762717248202688,0.21483622521289214,0.3678322850115675,0.16104744556468684,0.7100853881916505,0.7308504943311335,0.2564623567031005,0.3786604026334308,0.8718828487904755,0.6608946222155673,0.41296676051072795,0.2608209008483865,0.690849201384942,0.2410103202613802,0.39132405740868254,0.18250853185181304,0.09365272664680757,0.5221811162604195,0.19435805512142817,0.21823723836527642,0.769437042793527,0.1842811748100821,0.2792849680033179,0.34193068575665503,0.820243096363988,0.27872561994578265,0.9272140907876754
0.03368574849033123,0.8380657887671864,0.0813795463629098,0.22961430024145402,0.424299157748519,0.4281193887852597,0.6456735682974487,0.31418632729486723,0.1596422096077274,0.7345449036646857,0.509675732368411,0.2327937268332069,0.7492832484060133,0.47315443552063075,0.9924520384861099,0.6885360234203048,0.21519111583684847,0.9936593154948066,0.20400261198076244,0.3980485169333048,0.17945542962360178,0.14052772664680763,0.48285102768690263,0.3435712944052046,0.7118068630394269,0.5599936623367255,0.12740576085949798,0.6729010076522665,0.14301219750903513,0.8453136190606323,0.28824114735494366,0.9706920921236062
0.33986723875656527,0.8558437659860894,0.2702684352517986,0.24592351139885302,0.9082117201417359,0.2102387990867976,0.5277242681805668,0.7145538030371493,0.3575991697026176,0.72290415959597,0.6613384262857065,0.2453241779407976,0.5378275036745643,0.6975392484761845,0.13460031789622143,0.7806272055903735,0.40461416964267805,0.6676000248658991,0.28139124692707723,0.42326524015063827,0.2348456654810727,0.41396522664680757,0.12232521576299699,0.35142462278856124,0.5394225821874683,0.42214076251498056,0.2894430078332448,0.33536005197434005,0.31567530777428265,0.9147877611023909,0.3041003597035454,0.975268723843178
0.0243021164316267,0.8395583097329089,0.6424906574740209,0.22961430024145402,0.2586636576648727,0.39656535696795886,0.508544582846325,0.6940421133219405,0.22860772684910638,0.7481257717448538,0.825639678029443,0.281523258918282,0.6872083147951167,0.839268777139959,0.4872915073960924,0.683251675148498,0.5638935982080098,0.690849201384942,0.12108621739542537,0.39132405740868254,0.4159353735882669,0.08523610798860896,0.18132034862327248,0.3561366198185753,0.3116113938079902,0.55055168289688,0.1205071923289382,0.36669612831108783,0.17575245262725034,0.8780933238462165,0.28824114735494366,0.9455206176659621
0.04032717056532051,0.8012369470768153,0.7924906574740208,0.21330508908405502,0.2671196366161941,0.5006936619650515,0.12755368008898835,0.7792445167543467,0.22860772684910638,0.7423053997104961,0.7687661678104574,0.2801309865729942,0.6276284211676847,0.7388504059001723,0.7123579961739096,0.6793059099713042,0.3291732842937014,0.8457100103736241,0.09897517883933542,0.3442528407363265,0.46816477984803967,0.08523610798860896,0.14199026004975548,0.3577072854952466,0.5534442701036564,0.5278909322412507,0.24720905395716808,0.3502034565549048,0.1862549263877714,0.799654776379715,0.3421624693401894,0.9729804079833919
0.07705635096398668,0.786334194932779,0.9813795463629098,0.1904721934636964,0.28651134996476135,0.7078257566375694,0.5717317079089403,0.5411511338293447,0.23793103448275862,0.7306646556417804,0.5412721269345142,0.2676005354654034,0.604994964937298,0.7779872918807921,0.6917726465905727,0.8496780961912636,0.1833637322583301,0.8097794648441942,0.12661397703444785,0.3946862871709936,0.4716487915541979,0.3254235599801409,0.12232521576299699,0.3718432765852886,0.7725063136404733,0.5467748911209418,0.11346820001625875,0.3584497924329963,0.13513574539810944,0.8829939343371891,0.2527165116940759,0.9798453555627495
0.031384946682959325,0.7416259385006698,0.9647128796962432,0.23613798470441358,0.2155530480540606,0.32083568060643697,0.06669752089942729,0.5159478874517937,0.2965517241379307,0.6879819273898233,0.18325908848339853,0.3149377952051907,0.6078241469660963,0.8414430485833267,0.551106091104437,0.653658436319545,0.17528812746975078,0.6802813938762861,0.1874193330636951,0.3593828746667267,0.2531593182938169,0.3488610599801409,0.19443037814777814,0.3718432765852886,0.8087214706954323,0.48068103504202303,0.18385812314305297,0.3716439298379427,0.28772216240499016,0.8654835312663042,0.2625492233502089,0.9569621969648914
0.04981375893670719,0.7991079824848101,0.7924906574740208,0.3291004883015878,0.25701461707315304,0.245106004244915,0.29792083263760705,0.3141863272948673,0.3413793103448275,0.512954835699334,0.358593190308105,0.3817668677790081,0.7157830532859799,0.5396212028000762,0.4510573444443488,0.5629058372440894,0.1173601569571542,0.8158347396682345,0.033194839134967825,0.39804851693330473,0.2531593182938169,0.2915693933134743,0.18132034862327248,0.34042996305186196,0.4813500880866869,0.4863462227059303,0.1486631615796557,0.36834539548670614,0.24926654327517664,0.910305558390019,0.24256661579097077,0.9409439859463905
0.07224883472387854,0.791228567743072,0.4091573241406875,0.4530504930978202,0.14583462386632184,0.4622665661234569,0.22069212422774379,0.17572749244146887,0.3137931034482757,0.4450504952984931,0.09921267893756415,0.38037459543372026,0.6210054553212355,0.8649581496155028,0.3364655650971066,0.6595770840853357,0.16956133082531052,0.8689591868926669,0.055830372354127064,0.9182644350115066,0.756874130072478,0.25511105998014094,0.13543524528750264,0.24619002245158209,0.6487855379094025,0.42402915840294964,0.18385812314305297,0.6761995420035031,0.24617720091317383,0.8780933238462165,0.19149995202847334,0.8677178784332436
0.07385134013724791,0.5982390503534604,0.16512414193645072,0.4567262328953678,0.28197339105835995,0.29825442364900495,0.7612930830967862,0.09971836846163108,0.6689655172413792,0.6099610362719637,0.2632238547528061,0.38455141246958385,0.9958720741370155,0.8475639780685605,0.19820063372902694,0.46031594263705256,0.526339417985051,0.8158347396682345,0.40626205216731953,0.8964099415564842,0.2531593182938169,0.15875689331347423,0.10266017147623849,0.22420070297818348,0.6405374861939979,0.3824844488676293,0.10755615860187613,0.9296278717248961,0.22872652930440246,0.8713700197776594,0.009753378513497907,0.8585646149941002
0.02978244126958995,0.5585349835882228,0.40028712030375685,0.4379217124308868,0.14294570555164013,0.3697444299232532,0.7903018767741017,0.16634437911678449,0.2620689655172414,0.7694671358708325,0.5033564534551905,0.5680471168774476,0.6464680935804207,0.6740241474440085,0.3875858498957267,0.48793629887740864,0.3270144903798819,0.631669479336469,0.2946013074590654,0.8291653463102613,0.7928734394223371,0.15875689331347423,0.31242064386832913,0.21006471188814152,0.5534442701036564,0.39570322008341313,0.06123923312031126,0.8817991236319654,0.30826217637576436,0.8565191258415611,0.04337490869253353,0.7922034550603109
0.04981375893670719,0.5372453376681708,0.5313795463629097,0.6706541556469704,0.11571795211323246,0.5117375731011069,0.6208772496243077,0.21478352329039327,0.445849106159451,0.5013140916306185,0.6360613106328239,0.43328094455465893,0.45787749943978434,0.7200857325996011,0.1707535009512444,0.5846075457186549,0.46793641189665575,0.9830915079861505,0.5356116277204457,0.7753696701132832,0.4625996925173126,0.35667355998014094,0.3386407029173405,0.1660860729413442,0.31458690244986814,0.306948613348865,0.05715626151482311,0.8339703755390347,0.34502002811865784,0.7848038824436168,0.04892570717632834,0.705247452388449
0.04099997916317561,0.5776956649162697,0.6813795463629096,0.43382501678681323,0.05672448633001585,0.6279252331642861,0.6690814464963604,0.21636134557617856,0.29757324409048536,0.4916134715733555,0.7962291430658007,0.4789416867790244,0.2885765669374306,0.7940109616741052,0.2233510429792056,0.599756306933446,0.9714477525085105,0.822175424173428,0.5615920980238512,0.6812272367685712,0.6506733116998528,0.41136105998014094,0.2993106143438235,0.09713384973547277,0.3838705368592678,0.2842878626932357,0.1927279655852974,0.8273733068365615,0.41451813497976664,0.8722068353348614,0.1907070655728275,0.6388862924546597
0.05221751705676127,0.5231919256096179,0.9241760091926458,0.16113500623510205,0.1594485005855258,0.13971553797513028,0.12755368008898835,0.14062587585848407,0.16653876133186496,0.6441211718022621,0.12390167259975648,0.4647347181560119,0.08815463211829518,0.4981255876755559,0.48845406285407755,0.3663218619850325,0.25556913977974505,0.6633729018624366,0.8269245606969305,0.5672476478262235,0.4864784326607838,0.3827152266468076,0.3845258062531103,0.029752292206272686,0.31499309501130607,0.2618159516264033,0.9789834069115917,0.807582100729142,0.17575245262725034,0.8785117316248177,0.3209429173795446,0.5656601849415128
0.03351652255850065,0.7714314427887425,0.8677777777777778,0.4958000191849294,0.10148413653254756,0.2545722137901052,0.5576901245616924,0.28262988157916125,0.06309048546979629,0.11930367377560215,0.4464829432362047,0.36505959963555373,0.035197704337312355,0.6149169336282093,0.20677786272208404,0.5924990760730424,0.9495697462869116,0.6380101638416625,0.29681241131467434,0.39300517228983806,0.11033119429570357,0.32021522664680757,0.37797079149085744,0.09320718554379445,0.5250647621783319,0.21762748784792613,0.30957523797577624,0.5459074351296573,0.24926654327517664,0.8332712967225014,0.1535171755344644,0.4741275505500793
0.9846034853932284,0.865742328463254,0.3727777777777777,0.07011021512209185,0.13098086942415574,0.4711705180078134,0.8099600934602487,0.769777583039635,0.09757324409048578,0.5640080030580025,0.24266031026767262,0.16457238191410167,0.20890948090553052,0.6975392484761845,0.1613568056599246,0.2624358190007874,0.6693251263004848,0.5764422750530721,0.7959691067184046,0.15596797404690266,0.1809819807377074,0.20302772664680757,0.4107458653021215,0.1236780996712183,0.1910186677044409,0.1322719937117224,0.07123424614018202,0.17373186876374666,0.45081105317239206,0.6674297963647553,0.19625771573305384,0.7688741288880419
0.4217234589472333,0.8167761428471344,0.8313795463629098,0.11284034835447719,0.09756611648762747,0.5632394679388195,0.40275417639006095,0.6956199356077258,0.5551724137931033,0.45827124443383593,0.86223971969179,0.20077146289158607,0.1501137185489789,0.6309406034215226,0.760390478535029,0.5273939506493459,0.46220961525221543,0.6004628226418276,0.7467720459311046,0.23498037346121448,0.2150054615542228,0.07952435668652574,0.151556796869776,0.3739754976154439,0.2424927204328986,0.5060058164218364,0.1275367924610018,0.037933145039220906,0.5256522546373125,0.7668750715941307,0.06621217447451995,0.5670561656524773
0.16320303572319123,0.722465257172623,0.3369351019184653,0.26549456478773176,0.1617174800387263,0.7094034582284344,0.2749757679301054,0.7066646916082229,0.5517241379310345,0.277617793110134,0.19371178670737896,0.24253963325022193,0.09777385101620957,0.22804810496547487,0.1994397023890979,0.5056922421747804,0.25556913977974505,0.5027422277308672,0.6351113012228504,0.3022249687074373,0.9775365186638849,0.29677772664680757,0.151556796869776,0.5124414993806709,0.22468313875195678,0.7251440209801377,0.6720833420787677,0.10116411303654148,0.4792738513253325,0.8153424858730153,0.4341459009620793,0.43959697226240607
0.04687328334105441,0.46613567454387855,0.14222222222222222,0.26223272255625196,0.2660905348859556,0.45336261423910035,0.1261349844492781,0.5569712668822115,0.5492973820215202,0.5245955797680496,0.33268414676390035,0.4249273104829318,0.1466674762719669,0.7479493765185127,0.2800656549238342,0.6299838452563826,0.25556913977974505,0.750314333114568,0.40792038005902626,0.29886273894512616,0.4337103895535773,0.08523610798860896,0.24541111239938648,0.7998733182115244,0.3599449768602617,0.7637718551296196,0.22313605631193856,0.0863207084559768,0.7434758407890147,0.5957145529668109,0.6212846066755792,0.4400546354343633
0.023636954847198386,0.7046872799537203,0.2886204536370902,0.3698735161950853,0.6641910409263055,0.6163190643673971,0.1418199918072034,0.27316294786444945,0.6217111751249688,0.715905760226008,0.26949135763169396,0.3915127741960231,0.14049449965106453,0.5496887903271763,0.08498121102067388,0.7930988006159384,0.7358037371774593,0.6781678323745549,0.1387184856386314,0.2517915222727702,0.3976217207755226,0.36188189331347426,0.37141577672860465,0.38754993335200194,0.21444934460052262,0.8638568371919825,0.6413926234672173,0.2001201435736395,0.9340545562133015,0.7911087787335731,0.11748874888909518,0.6746070110624117
0.08186386720409483,0.7586576552367112,0.30360176858513194,0.39107549069970404,0.16790447953684728,0.6746940232294036,0.25579608259586345,0.3315423724385056,0.5517241379310345,0.39072702297782036,0.13683827648839328,0.5652625721868719,0.07853541322038086,0.811003248376178,0.2594803053404972,0.7069262662116603,0.25556913977974505,0.9344795934463334,0.07901868153718855,0.25683486691623686,0.6166498308833372,0.35667355998014094,0.23729153439355233,0.25404335083493873,0.22468313875195678,0.7090083743785156,0.4794958002755901,0.15394066265632714,0.734209426540867,0.6391322942915424,0.11748874888909518,0.7363915392766295
0.04166514074760392,0.7380044529429421,0.14804621302957652,0.39107549069970404,0.7578391373690128,0.3697444299232532,0.29090004096398314,0.41674477587091185,0.8689655172413792,0.47803260349318727,0.13051899757517263,0.4304963998640833,0.1164464524062786,0.6505090464118325,0.321236354090508,0.7029805010344665,0.7391553559429056,0.7140983779039849,0.1818915734246726,0.24674817762930346,0.2531593182938169,0.4999027266468075,0.7770228096180907,0.38912059902867324,0.38089502821738974,0.7071199784905465,0.5639637080277432,0.22815768555915064,0.28733499613891705,0.8583418194191458,0.11748874888909518,0.8050410150702046
0.06263380224366225,0.8167761428471344,0.2536017685851319,0.3486715416904666,0.21617298691554152,0.4596734206025605,0.18558816585962412,0.412011309013556,0.4275862068965517,0.6099610362719639,0.006319278913220647,0.43328094455465893,0.07372580377142367,0.7070401039393944,0.23203317256271472,0.6871974403256916,0.2770671175407049,0.6950763243884043,0.45827955537579673,0.23161814369890335,0.10727809206749225,0.5233402266468075,0.15954041901387445,0.7684600046780977,0.22468313875195678,0.6712404566191335,0.7751334774081269,0.18197820464183817,0.3669500042266541,0.9009227451866751,0.919437798829291,0.699778485520056
0.025640086613910117,0.746520311310963,0.15360176858513208,0.43347943970894137,0.30569228732060494,0.4754504365112109,0.14346341581788066,0.3962330861557029,0.47931034482758617,0.5284758277909547,0.14315755540161376,0.4221427657923561,0.21982744363763104,0.7440027184766465,0.283496546521057,0.6950889706800791,0.3453244938708601,0.9809779464844194,0.6241123445464712,0.20472030560041424,0.2348456654810727,0.5155277266468076,0.4173008800643743,0.8092973122715523,0.4325340419801556,0.6806824360589789,0.7047435542813323,0.25289669319342506,0.6380389530562189,0.9259932678833195,0.9035785864806893,0.713508380678771
0.0418012318698603,0.6741355151827862,0.1924906574740209,0.3796590428895248,0.4214102394338373,0.5022713635559165,0.1575049991651287,0.4183225981566972,0.445849106159451,0.43923012326413535,0.09892260300906952,0.4458113956622497,0.1410091122143703,0.845389706625193,0.2148787145766006,0.8049360961475196,0.36052563229642104,0.8602195312045894,0.7899451337171456,0.19799584607579193,0.25163276717971117,0.16136105998014097,0.5942862786452007,0.770030670354769,0.32876113135169954,0.6674636648431951,0.7399385158447296,0.1935230748711663,0.7218536699307162,0.9013411529652763,0.8782038467229266,0.713508380678771
0.04620812175662609,0.8217803325140061,0.15360176858513194,0.31279127714418886,0.5519819459892358,0.4849166460564011,0.17856737418600016,0.3899217970125617,0.7886336524612382,0.4625116114015665,0.12419971866195183,0.6763601146397669,0.05714947698172645,0.845389706625193,0.21144782297937778,0.8950543957289914,0.47836082482937403,0.6506915328520496,0.8452227301073705,0.2282559139365922,0.17945542962360178,0.09088541666666666,0.5680662195961893,0.636524087837706,0.5410721925305494,0.5466063280131722,0.23791794016856527,0.24794889166657022,0.9498074604351529,0.8758522224900308,0.5356448599931302,0.8356814563962419
0.05261814341010362,0.8153934387379905,0.041666666666666644,0.42695575524598184,0.8191015826054301,0.5259368874188922,0.1013386657761372,0.3031415712943702,0.8734353130560031,0.4916134715733555,0.09260332409584875,0.6638296635321761,0.13721532839671943,0.8027080474475762,0.1723356587710376,0.8496780961912637,0.15961195346839097,0.5978524953087702,0.7899451337171456,0.32407946216245975,0.18250853185181304,0.6510416666666667,0.5276786883613526,0.36870194523194594,0.2800275657623224,0.6647153525651263,0.12529406316569422,0.2331054870860055,0.5776682642295359,0.25798057858961704,0.3657293330519958,0.6155569662823906
0.287649721699804,0.7890996031510669,0.10084267585931246,0.8092824504848619,0.7079215893985987,0.7378020868640052,0.11419963860411741,0.27158512557866415,0.7803318647801405,0.44699061930994566,0.07996476626940759,0.6109233144112373,0.0891192339071477,0.6592061321853036,0.09342515203491274,0.8062746792421328,0.2968708651393842,0.6763396805539769,0.5135571517660216,0.6657214929376057,0.1428281239981134,0.08523610798860896,0.6659894998448872,0.20418653796727304,0.501405273803785,0.5203373486893743,0.14162416926697624,0.2792849680033179,0.6132512949424236,0.6812948122804708,0.1355170065996936,0.7180850123983427
0.03368574849033123,0.796979017892805,0.4319537869704235,0.804389687137642,0.455444931231847,0.6841602327745938,0.03113074903989787,0.17533796614576072,0.13550427857324443,0.3693856588518418,0.07364548735618694,0.5621937823261621,0.25179720056305227,0.5918037174409027,0.017259358576566138,0.7214407279324676,0.3408168918129015,0.7125556357645599,0.4504841292794994,0.49071743380931093,0.17945542962360178,0.18219439331347426,0.12888023052524983,0.17904018048376502,0.28695592920326235,0.8166469399927547,0.3899601741224415,0.3205166473937754,0.5412198305742008,0.6234445847982422,0.21240246806571458,0.64257058902541
0.6050818846691979,0.8090065449619749,0.4875093425259791,0.8043896871376421,0.7085415282600798,0.623192128391691,0.03113074903989787,0.2100500564330374,0.2492973820215202,0.412068387103799,0.025277115652882588,0.5427019694921321,0.09958720741370158,0.7896624187873696,0.017259358576566138,0.687901723926321,0.4887852377620923,0.5344456502568349,0.12824402362532164,0.40855040304513773,0.1809819807377074,0.3801110599801409,0.5174442250328788,0.31372864654844934,0.17699697978825282,0.39570322008341313,0.5287687464643461,0.34855418937928656,0.3703471518383548,0.8112786909392449,0.08952529078874867,0.5533262704937624
0.03368574849033123,0.8004906865939541,0.4319537869704235,0.7668785014756244,0.9228546985911783,0.4849166460564011,0.06623470740801754,0.20216094500411086,0.8044697958146235,0.41982888314960937,0.12604372630158542,0.503718343824072,0.20890948090553052,0.9127921213695938,0.09870477740956518,0.6484440721543837,0.1852375048266703,0.41185908315642655,0.33114108367827966,0.41661975447468447,0.11033119429570357,0.1291666666666667,0.4894060424491553,0.10938504201350917,0.18723077393968704,0.6269474348057442,0.10642920770357929,0.32711371609624856,0.2146713924694712,0.7866265760212015,0.19451327653649192,0.3890251917611391
0.03368574849033123,0.7948500533007997,0.575287120303757,0.6967488934988088,0.16790447953684728,0.480183541283806,0.24877529092223952,0.10891164791419952,0.20344827586206893,0.29760107042809575,0.10329432221399117,0.4772651692636027,0.29661412379827906,0.7505255328067498,0.2949517767707105,0.5537457079017344,0.2133173432685083,0.3970641526443083,0.16520773666379276,0.22338068078124101,0.2150054615542228,0.08523610798860896,0.5495637973679177,0.13153142805457493,0.7781274088556132,0.6448029141875659,0.5193372088936238,0.4824106488683528,0.27505860054514164,0.679472118702886,0.2814217602068292,0.7322610751314684
0.4938362025488555,0.7763258155990358,0.9800093425259792,0.5540432958715675,0.9909240821871974,0.7094034582284344,0.33302479100572674,0.02576041345331413,0.27586206896551724,0.2879004503708328,0.773137887015379,0.4480274500125575,0.3502527351652344,0.4809158738291464,0.41661119280823167,0.5359897646043627,0.3928280514507384,0.6869074880626327,0.16520773666379276,0.2045916810366329,0.17945542962360178,0.19088541666666664,0.824218915906311,0.047367392518289676,0.6570335896248073,0.18609127651884202,0.1275367924610018,0.5131879098812754,0.4324321273009453,0.4822551993585392,0.2826904971947173,0.3725263263755881
0.2183572657878319,0.6621079881136163,0.32722222222222225,0.40789337104654877,0.2450497809456689,0.7441128932274654,0.15750499916512853,0.08808439374183355,0.13205600271117526,0.4489307433213983,0.5974619332278452,0.4981492544429206,0.8558275637114977,0.49613577393272085,0.16251936111790963,0.6964275537746922,0.3408168918129015,0.2956132005612118,0.3001573483989208,0.3888418720112834,0.14588122622632463,0.08523610798860896,0.14053087620334123,0.3388592973751906,0.42608814159347524,0.7902093975611872,0.16978013851769408,0.21001574662734931,0.49065663443942764,0.6588837987186132,0.19157928517110845,0.29680606261176984
0.02964635014733356,0.6734990715565036,0.7919537869704235,0.0562473856383027,0.47194772626573256,0.728335877318815,0.12637425012523074,0.20216094500411086,0.3010215199525545,0.07684286378225538,0.20061121747758898,0.1924178288198589,0.7351373382620217,0.28588372535905754,0.3075127877016168,0.6319567278449797,0.6550740590265212,0.595738933807039,0.1774410844126217,0.04471765583873815,0.32697093433351876,0.42177772664680757,0.6629655527548916,0.6647960700177898,0.38782339165832963,0.23199957307751867,0.6122519074209924,0.11270898326586959,0.5621006882926475,0.1082384721997036,0.3260654058872508,0.36520834627424054
0.022571166909427707,0.4970056611279539,0.6802871203037569,0.16274653449611812,0.3312710001672929,0.2656161249261605,0.12755368008898835,0.5627672991446033,0.1620689655172417,0.36435528935079764,0.12390167259975648,0.11807048558148707,0.40429011191528275,0.5544392180587812,0.5648296574933281,0.7595597966097918,0.49451203440653263,0.7505997427957211,0.5577792288782014,0.06909382161549393,0.3976217207755226,0.3586910233531924,0.14486582624578745,0.6585134073111045,0.5534442701036564,0.6137286635899604,0.5981739227956335,0.11765678479272448,0.14779930725795795,0.8897172384057463,0.11748874888909518,0.7821578564723463
0.05221751705676127,0.6472052359695799,0.6425093425259791,0.28343469706087066,0.14748366445804129,0.03274737011448054,0.12755368008898835,0.47204251771194855,0.2148146234008305,0.6790434040084089,0.6562312271207973,0.18684873943870745,0.765010820587071,0.27116461843176504,0.03956015395851449,0.10160345331273839,0.36052563229642104,0.5500227562814324,0.2946013074590654,0.32912280680592637,0.18250853185181304,0.07031250000000001,0.2853967024491288,0.7527533479113845,0.4014326769887474,0.14983407546983513,0.4020668848361161,0.03925255877971554,0.2146713924694712,0.669670897720941,0.22528014849277916,0.8164825943691338
0.0534193961167883,0.6897845278096839,0.11195378697042359,0.26875640701921155,0.2904293700096815,0.43443019514871983,0.6770435830132991,0.560126911453782,0.3010215199525545,0.9285573048099454,0.3959287119304395,0.16749615383920616,0.5463150497609593,0.834518349408354,0.32123635409050805,0.15747846528743434,0.34879748948632106,0.6953617340695575,0.5013395179585062,0.26524044132201474,0.07217733755610951,0.3306318933134743,0.09202376696267035,0.3262939719618199,0.4737743005571791,0.39381482419544395,0.30338056867648416,0.33206151762310354,0.30826217637576436,0.6920819112827986,0.2156059547983479,0.7684279613136312
0.03365261368075702,0.796979017892805,0.09555555555555557,0.2442925902831131,0.20812617083297746,0.6652278136842135,0.1926089575332482,0.364676640439997,0.20102151995255463,0.5672783080200067,0.7434890521575748,0.2578546290483884,0.6898704258012481,0.7940109616741052,0.6403092726322303,0.4326955863966966,0.1833637322583301,0.6105338643191572,0.1072385369970362,0.40981632110139377,0.0015265511141056242,0.24469439331347426,0.3714157767286045,0.1660860729413442,0.9976018549782003,0.7203387497063302,0.3687027734022837,0.29412837258388264,0.46393793574464787,0.9009227451866751,0.272381935006342,0.894731501176263
0.030183067622932287,0.8423237179511969,0.01582399080735418,0.24103074805163333,0.37438160977810514,0.48176124287467104,0.6576089141426095,0.29840810443701427,0.666538761331865,0.7461856477334012,0.46544077997586647,0.23418599917849475,0.9558135365082921,0.40466488505454606,0.13460031789622143,0.7220750274264514,0.11398216845685291,0.690849201384942,0.19294709270271745,0.4249463550317939,0.891533341930891,0.09886105998014091,0.4173008800643743,0.3372886316985193,0.4689017400207581,0.480681035042023,0.1541539316476799,0.6630054045985566,0.2719692581831389,0.9528864841575488,0.27872561994578265,0.9386556700866047
0.06824257119045508,0.8310424513648881,0.18693510191846532,0.26223272255625196,0.2671196366161941,0.1802624688603618,0.6147820849335035,0.575905134311635,0.2817371007371005,0.7112634155272545,0.5665492425873968,0.24671645028608552,0.7989610049326511,0.6018713049680028,0.13460031789622143,0.7668170274701955,0.2474935349911657,0.6697135863676301,0.2150581312588074,0.41317855086370486,0.2531593182938169,0.3202152266468076,0.22065043719678948,0.34985395711188993,0.6652816413402122,0.4353595337307644,0.26832603089520646,0.3221659145693937,0.22085007719347682,0.8534412089281733,0.25747427539865636,0.9729804079833919
0.13332845039233254,0.8331714159568933,0.5313795463629097,0.2328761424729338,0.14748366445804129,0.31768027742470684,0.501523791172701,0.6782638904640874,0.19655172413793118,0.7597665158135695,0.8003625623765604,0.2745618971918427,0.8320624346695918,0.8606096067287673,0.8598863348544907,0.6871974403256916,0.33499508805330147,0.7119848164022538,0.08791965956129044,0.6875759863926282,0.2531593182938169,0.48948605998014094,0.25342551100805366,0.3624192825252606,0.537436839751439,0.5411097034570344,0.16978013851769422,0.34855418937928656,0.3703471518383548,0.8153424858730153,0.3104440446429861,0.9363673542268187
0.05942879141692349,0.8310424513648881,0.7424906574740209,0.21330508908405502,0.08395223976842364,0.4218085824217995,0.12755368008898835,0.7776666944685614,0.33895255443531336,0.7694671358708324,0.7561276099840161,0.2870923482994335,0.66457485856473,0.6692737197124036,0.5476751995072141,0.6654957318511262,0.4645584233963544,0.9344795934463336,0.2261136505368524,0.3223983472813041,0.2531593182938169,0.08523610798860896,0.19443037814777814,0.34985395711188993,0.33537199277268803,0.49578820214577585,0.29648200014592424,0.3370093191499584,0.1893442687497742,0.8355123980786872,0.36753720909795207,0.9478089335257478
0.022835702140513683,0.7565286906447062,0.9147128796962432,0.2051504835053555,0.09591707589590791,0.5227814842371621,0.782355458117658,0.6435518001768109,0.23448275862068965,0.7655868878479273,0.5665492425873968,0.2648159907748277,0.5927136350332523,0.7584188488904822,0.7295124541600236,0.7832343876729541,0.3270144903798819,0.7780760423182264,0.08791965956129044,0.34761507049863766,0.7928734394223371,0.32802772664680757,0.0961051567139858,0.3828379363219879,0.456529662447651,0.5920963924322005,0.06419525382750256,0.36174832678423297,0.416679223079094,0.8852350356933749,0.2476415637425233,0.8462307005463496
0.029381814916247584,0.7607866198287166,0.16512414193645072,0.24266166916737317,0.1111799932068313,0.4312747919669898,0.10577468859576877,0.6198844658900313,0.1596422096077274,0.7151436635501597,0.17722988549867266,0.30658416113346354,0.2614164194609666,0.6505090464118325,0.13460031789622143,0.6457669059651576,0.9077929853514735,0.7098712549005225,0.2592802083709873,0.36946956395366004,0.5231057382862723,0.36969439331347426,0.12232521576299699,0.40639792147205783,0.5658163476767634,0.5467748911209418,0.09939021539089983,0.3600990596086146,0.517914798740109,0.8542780244853753,0.29458483229438437,0.8874203860224947
0.05021438529004954,0.8331714159568933,0.8480462130295764,0.3176840404914086,0.0901392392665445,0.323991083788167,0.11514098344743244,0.35205406215371454,0.14584910615945113,0.5439968198825755,0.3427949930250534,0.3636673272902659,0.0891192339071477,0.42221054485821663,0.43321670813879015,0.6201194323133984,0.4926382618381924,0.6993034473918666,0.16530829450760515,0.3711506788348157,0.46816477984803967,0.3749027266468076,0.11577020100074416,0.3608486168485893,0.7052084216671031,0.4844578268179612,0.1416241692669764,0.3452556550280499,0.35768358997850636,0.8601645129967305,0.2400291418151945,0.9729804079833919
0.9765909583263815,0.7614230634549993,0.5202684352517987,0.4122774652043227,0.07198740364093939,0.5143307186220032,0.40323270774196607,0.15336432617833132,0.11136634753876146,0.4722122314588295,0.15195276984579,0.39290504654131103,0.18061766061754703,0.576181932492459,0.39571706298114473,0.6852245577370948,0.5881204125737477,0.8668456253909358,0.05414376316158735,0.451844193130283,0.2531593182938169,0.2915693933134743,0.14199026004975548,0.2681793419249807,0.3357719753097935,0.46179707616233184,0.20497510008109135,0.3765917313647976,0.3728192708631014,0.8265479926539442,0.21179974383468353,0.8860244053115303
0.40329464669348547,0.6890382673268227,0.16512414193645072,0.4519282411715261,0.12768278824071685,0.46959281641694833,0.12755368008898835,0.10125428055240264,0.14584910615945113,0.9401980488786609,0.38329015410399836,0.4137891317206289,0.24489131651372326,0.8149499064180441,0.21741362667347475,0.5037193595861835,0.25556913977974505,0.89220836341171,0.2835457881810204,0.8745554481014617,0.2531593182938169,0.21084022664680757,0.10266017147623849,0.2383366940682254,0.3907989003002077,0.37115407353981467,0.07827323845286147,0.9494190778323157,0.3624706997274292,0.9237521665271338,0.07001838543818437,0.8402580881158135
0.19778923064511592,0.5223425855241346,0.44306489808153465,0.3602898673216675,0.3063122261820858,0.45178491264823534,0.5153261088439963,0.16744885471683424,0.2492973820215202,0.8975153206267039,0.5602299636741762,0.674967842294479,0.20669735912494566,0.7522979194052481,0.2853452802984866,0.5096380073519742,0.49451203440653263,0.6401237253433938,0.35043167981319245,0.8459764951218172,0.8327325661324275,0.12229855998014093,0.27309055529481213,0.2053527148581275,0.25988989952807023,0.36926567765184554,0.03167546540705755,0.8883961923344388,0.34502002811865784,0.8834123421157901,0.03798277649400895,0.7944917709200967
0.07865885637735606,0.6862728591085346,0.5536017685851319,0.6347738911006926,0.4214102394338373,0.6999372486832443,0.4242950827628377,0.16744885471683424,0.4758620689655174,0.5381764478482177,0.7308504943311336,0.5680471168774476,0.10705892786879023,0.7679197043536921,0.15702993456235312,0.6003906064274298,0.5800448077851684,0.7225526239109096,0.3659094068024554,0.8274842314291058,0.33454734594104185,0.3228193933134742,0.3386407029173405,0.1707980699713582,0.4292698515282383,0.3409397393323089,0.06419525382750256,0.8488137801195995,0.3297304446092139,0.8049737946492886,0.014828326465050454,0.7349955585656649
0.04473406045208631,0.6160170275723631,0.20444444444444443,0.5956317843229351,0.25350575989699053,0.5085821699193767,0.5328780880280561,0.24318432443452867,0.9458491061594514,0.4799727275046398,0.36433231736433624,0.4291041275187954,0.07853541322038086,0.8262231484797523,0.166636431034577,0.5681901855158962,0.8379627557090524,0.9957728769965377,0.5599337701321446,0.7165306492728382,0.5077374603322528,0.38531939331347426,0.31242064386832913,0.11582477128786163,0.31144643277368206,0.28617625858120477,0.07728849165735448,0.8059328335535237,0.7437836460387124,0.8363492136358892,0.09491742298727326,0.6571928193329464
0.0418012318698603,0.6684948818896319,0.7313795463629097,0.12176765414470729,0.8265284598265129,0.22775128674539954,0.12755368008898835,0.24318432443452873,0.6782888248750313,0.6569399432065818,0.12390167259975648,0.4215742754520882,0.06858205227713282,0.42162420231281467,0.5455117639584285,0.32252386851818216,0.40466167320025787,0.9133439784290217,0.9383089174232334,0.4613374103134226,0.26994641999245544,0.3827152266468076,0.3845258062531103,0.034935488939288085,0.273499184858488,0.28051107091729743,0.7431771644368302,0.8125299022559969,0.2383007488022482,0.8941994411181179,0.3273183207436825,0.5702368166610845
0.06423630765703164,0.754399726052701,0.16512414193645072,0.5228927025609355,0.16790447953684728,0.20124590001886689,0.36110795770022247,0.12248091957195312,0.8010215199525547,0.1262881202168315,0.4022479908436603,0.4845107761601759,0.14598579268599432,0.7135629182694978,0.48845406285407755,0.656969902002755,0.8118094293052646,0.3843827836339212,0.27691247661419344,0.5783035191175161,0.4716487915541979,0.29417355998014094,0.4369659243511327,0.048757346893995794,0.2907850632265933,0.2993950297969885,0.5700179535449158,0.7729474900411576,0.5900852593220539,0.7974136750235293,0.11862690836754067,0.44712542340460637
0.04126451439426158,0.8047486157779645,0.15611111111111112,0.09163837384985853,0.36014779419742016,0.4908917878936264,0.9377385019202042,0.7950227396121998,0.613793103448276,0.4916134715733555,0.25150730074618155,0.2564623567031006,0.11271729192638688,0.6997135199195523,0.09263407312501612,0.2577009007881549,0.3907642646520786,0.6208270665894269,0.6909416735769774,0.1542868591657471,0.3238101047358207,0.25250689331347426,0.46974099816239684,0.13467275940791762,0.14895360395587678,0.06693349598799125,0.04927294618875618,0.1885752733443114,0.5071822774612449,0.7974136750235293,0.17976413489050808,0.7574325495891127
0.09270493816341872,0.7805837447830462,0.4111111111111111,0.13828271776001966,0.34942283579289796,0.5711279758931447,0.39152090971226267,0.6987755801792963,0.43103448275862083,0.4278112974540302,0.9127939509975552,0.1406252975751504,0.20935947013107714,0.7526998042501176,0.2985924695488374,0.5609329546554925,0.4887852377620923,0.4798525144239572,0.8600911185310653,0.20303919071925866,0.3238101047358207,0.08385416666666666,0.151556796869776,0.1692274042946869,0.4401098295096632,0.4886325742525205,0.9958769884620224,0.07306253587989069,0.28733499613891705,0.7395634475413005,0.02323378317159361,0.58765100839055
0.04300311092988733,0.7905921241167894,0.8369351019184652,0.1904721934636964,0.7238044455710031,0.6089928140739057,0.12262458861246621,0.7618884716107085,0.5403577903922727,0.5529353432639901,0.1557961132280552,0.23836281621435834,0.12120483801278195,0.5852809031107994,0.39671596922941,0.45637017745985886,0.7714841448320778,0.5238778427481791,0.6732528427321055,0.2803704752524149,0.25468586940792254,0.3306318933134743,0.151556796869776,0.5309753543653924,0.34979366322598154,0.6175054553658986,0.9247831661039599,0.07164223059297391,0.28733499613891705,0.855682310284359,0.3136158871127063,0.6334173255862666
0.06503756036371633,0.5187210999664069,0.21888888888888883,0.2181978524312747,0.5332101715021498,0.3823660426501735,0.11654514178215723,0.7587328270391378,0.5206896551724138,0.31506218653116913,0.11156116083551068,0.3497446038373872,0.09777385101620957,0.700517289609291,0.27663476332661135,0.5589600720668957,0.40466167320025787,0.8964354864151722,0.5571698903126334,0.27028378596548147,0.33454734594104185,0.08523610798860896,0.3778224105968936,0.7480413508813705,0.4292698515282383,0.7448878962499286,0.2576271186440678,0.05663389929484736,0.28733499613891705,0.6629475936523836,0.6022535518572573,0.3558446117942444
0.054621275176815344,0.6663659172976266,0.3175093425259791,0.3519333839219464,0.5247541925508282,0.6636501120933483,0.22957988772750249,0.3189197941522232,0.7413793103448273,0.9188566847526822,0.3453227045903417,0.3998664082677502,0.05024359293239744,0.8497382495119284,0.12145356254168786,0.6615499666739325,0.5662424063521488,0.6168745488243508,0.24153481492444956,0.2686026710843259,0.3885726217386372,0.3983402266468076,0.2862005848193178,0.3859792676753306,0.4292698515282383,0.8411960865363531,0.48653479258826937,0.2017694107492578,0.28733499613891705,0.8108602831606437,0.7925641000404776,0.5487496387741907
0.03779496833643682,0.6224039213483787,0.2536017685851319,0.38455180623674445,0.16790447953684728,0.7346466836822751,0.19260895753324805,0.30945286043751136,0.445849106159451,0.48967334756190284,0.08657412111112286,0.5652625721868719,0.05443614213314106,0.712759148579759,0.13253731624325293,0.7010076184458697,0.2632172125501054,0.822175424173428,0.1475629010610674,0.27028378596548147,0.25468586940792254,0.35667355998014094,0.22811451372639835,0.25875534786495274,0.43632193574490946,0.6882360196108553,0.4794958002755901,0.1440450596026173,0.5801387704164217,0.7467051593884589,0.11748874888909518,0.6311290097264809
0.03368574849033123,0.778454780191041,0.17026843525179863,0.3861827273524844,0.6012795550981689,0.4707173317386158,0.2768584576167353,0.40096655301305884,0.9527456578835891,0.4528109913443035,0.15579611322805506,0.6930673827832212,0.08815463211829518,0.6896459323924523,0.35554527006273623,0.8930815131403946,0.16956133082531052,0.7056441318970602,0.07686414028324548,0.2282559139365922,0.17945542962360178,0.44000689331347426,0.7449032372830519,0.3388592973751906,0.5570796228827668,0.682570831946948,0.46541781565023116,0.2347547542616238,0.6982243135979391,0.8448952112820313,0.11748874888909518,0.8855782377371196
0.16561492820819218,0.7741968510070306,0.17026843525179863,0.39270641181544397,0.20709706910273898,0.39656535696795886,0.304941624311231,0.3709879295831382,0.786206896551724,0.5633980599971015,0.09892260300906952,0.44163457862638605,0.07101246892283831,0.6592061321853036,0.2560494137432745,0.7088991488002571,0.2412917027709266,0.6760542708728238,0.40852971862459436,0.23666148834237002,0.11033119429570357,0.47906939331347426,0.30702825116456306,0.7873079927981538,0.22468313875195678,0.6674636648431951,0.761055492782768,0.1935230748711663,0.31444086109976993,0.8243068912977584,0.11748874888909518,0.7935994357712755
0.731679812325379,0.7848416739670566,0.23137954636290967,0.3829208851210045,0.13448972660031877,0.45020721105737027,0.12240104079700902,0.39781090844148825,0.9620689655172413,0.5381764478482178,0.07996476626940759,0.44163457862638605,0.1714484309451794,0.9410576501333746,0.23889495575716035,0.6871974403256916,0.46793641189665575,0.8475381621942022,0.5356681903221114,0.21144476512503652,0.13573648555328055,0.49209022664680757,0.351750732441846,0.7951613211815104,0.2875208727746761,0.6844592278349172,0.8384844082222418,0.2545459603690434,0.42455567519001963,0.8713700197776593,0.11748874888909518,0.7180850123983427
0.46005514475926884,0.7635520280470045,0.058601768585132,0.41390838632006266,0.49071950075281867,0.6421245474820715,0.0802762907552654,0.3993887307272736,0.33895255443531336,0.5207153317451444,0.029410534963642414,0.44302685097167394,0.38714794871982583,0.8827542060073142,0.21144782297937778,0.7010076184458698,0.16956133082531052,0.8517652851976645,0.7678340951610558,0.20976365024388094,0.11033119429570357,0.21084022664680763,0.6139513229319592,0.798302652534853,0.34608824997838183,0.6674636648431951,0.7117825465940117,0.2611430290715166,0.217760734831474,0.8968589502529046,0.7608456753432742,0.6837602745015552
0.9246456235141333,0.82316303662315,0.31471287969624306,0.3030057504497495,0.738038261151688,0.5038490651467816,0.09431787410251327,0.40570001987041476,0.21966813521985912,0.49743384360771326,0.09892260300906938,0.44302685097167394,0.4302310312203025,0.8997464927093871,0.2423258473543832,0.8088818613247133,0.2770671175407049,0.6211016718278132,0.9226113650536854,0.24170483298583673,0.36043741036130916,0.14010416666666667,0.764716662463774,0.6710787327244753,0.5823124511075728,0.5711554745567706,0.2146892655367232,0.2034186779248761,0.4800465901252983,0.820661504142589,0.646659346433342,0.8306586571022595
0.8490633338546864,0.8246555575888725,0.08693510191846536,0.39433733293118384,0.725453486162723,0.7456905948183304,0.11538024912338508,0.3709879295831382,0.23346123866813498,0.46639185942447164,0.10524188192229017,0.686106021056782,0.4097814049502126,0.7853138759006341,0.19669498911131963,0.8772984524316196,0.22946855284566686,0.631669479336469,0.8120561722732356,0.295500509182815,0.46816477984803967,0.2171875,0.4168989388792798,0.5230316703315533,0.966335528952484,0.682570831946948,0.1392316240089336,0.29577763975950094,0.2846328200429874,0.5795786232022735,0.317263580114669,0.7437026544303976
0.11025237243981345,0.7890996031510669,0.06444444444444444,0.8419008727996597,0.48783058243813704,0.7409574900457353,0.0573312260477637,0.28420770386494654,0.23550427857324469,0.44311037128704056,0.09892260300906952,0.6359842166264189,0.6910533224552214,0.6570318607419358,0.1194999281738062,0.818111974773714,0.7235055516764007,0.6802813938762861,0.5080293921269992,0.6505914590072056,0.4340335716620376,0.08523610798860896,0.9323766594834827,0.25875534786495274,0.9030853923439947,0.4976765980337449,0.04913252240663666,0.2842327695301728,0.4132820754673933,0.7458683438312569,0.29410913008571055,0.528154796036118
0.0719766524793658,0.8018733907030982,0.47639823141486803,0.7897113970959829,0.24566971980714983,0.6778494264111338,0.007020791673623934,0.19900530043254025,0.21277158349572117,0.31506218653116913,0.1368382764883931,0.5816855951601922,0.4952200223208615,0.5896294459975349,0.03876907504861787,0.7332780234640489,0.3408168918129015,0.7823031653216889,0.3592760952356284,0.6287369655521833,0.3238101047358207,0.4660485599801409,0.12888023052524983,0.19664345842913297,0.32876113135169954,0.6666037484530954,0.23003462484249848,0.2875313038814094,0.3590735521157284,0.8045553868706875,0.11260040767507203,0.6837602745015552
0.04166514074760392,0.833807859583176,0.4030648980815347,0.8158061349478214,0.2013192324733758,0.6137259188465009,0.09103102608115851,0.2337173907198169,0.15070261797847975,0.3887868989663678,0.04836837170330435,0.5621937823261621,0.5083474269344856,0.748351261363382,0.01176993202100962,0.7174949627552739,0.2332160979823473,0.5746033187897271,0.23164141017587486,0.4090547375094844,0.7066021844047573,0.43219439331347426,0.4640950451675002,0.2069233805347988,0.6487855379094025,0.6231706430298058,0.4443008387121928,0.3221659145693937,0.3108881980253597,0.8493774139944028,0.2520504989372188,0.5601912180731199
0.07800195099575463,0.7592940988629943,0.39862045363709026,0.7880804759802431,0.3834575275909077,0.49911596037418654,0.04984762088272993,0.22740610157667568,0.23205600271117535,0.4004276430350834,0.10582203377927935,0.5413096971468442,0.9049394838323759,0.8997464927093871,0.07674707118733914,0.7056576672236927,0.2949495890134641,0.44567606718412545,0.29797452584414474,0.5000030525800008,0.6069543676295316,0.23186810668652577,0.5250566824564514,0.2634673448949667,0.5934473209233692,0.5637704541126637,0.261287038582527,0.24629962449095189,0.32664110224721105,0.7481094451874426,0.06827394624162242,0.43410501419892017
0.051680799581162555,0.7905921241167894,0.5419537869704236,0.7489383692024855,0.24216086263098718,0.5022713635559165,0.1715465825123764,0.1579819210021224,0.3355042785732444,0.4178887591381568,0.17027867869412988,0.48561880333532986,0.6078241469660963,0.7787910615705308,0.1899664938956922,0.6326610114456088,0.1335113665343128,0.48372017421528657,0.16520773666379276,0.45221990303084836,0.0742425255176488,0.9739583333333333,0.33692775877979525,0.16137407591133024,0.537436839751439,0.6806824360589789,0.17315921089191436,0.3023747084619741,0.3961392091083199,0.8829939343371891,0.02323378317159361,0.544173007054619
0.04500624269659906,0.8054948762608257,0.6358426758593125,0.6364048122164324,0.16109754117724537,0.7299135789096801,0.304941624311231,0.06520597059794667,0.6217111751249688,0.4004276430350834,0.3807106665043772,0.4577733564295725,0.7061638343880656,0.6461605035250968,0.2784834971040409,0.5320439994271688,0.15341012124815193,0.5981379049899233,0.679389940936696,0.035975858456729196,0.504792085473528,0.9427083333333334,0.151556796869776,0.19592872079809948,0.5745530724707599,0.4693506597142083,0.1275367924610018,0.5923527343109538,0.2719692581831389,0.4654469391871461,0.28324553254602625,0.580991901202078
0.039125291505293466,0.6954251611028383,0.883898231414868,0.5043002018415006,0.34261589743329607,0.7425351916366003,0.29792083263760705,0.024498155624685887,0.5024267559095141,0.3810264029205574,0.9842018027169485,0.41461291372564885,0.645619338971781,0.45699888795210086,0.48015130518879834,0.530071116838572,0.2608209008483865,0.5338856353372954,0.16520773666379276,0.5067275121046231,0.7228506492559623,0.08523610798860896,0.2749086788295242,0.086767456269442,0.4254819577634846,0.3290428452381035,0.45837882333755153,0.27598643365208136,0.3589196494908796,0.3993344491796662,0.37467392881660716,0.6407284407400349
0.07705635096398668,0.6479514964524411,0.34804621302957645,0.23450706358867368,0.1730623773047295,0.7015149502741093,0.22771291590136772,0.13589240900112817,0.48275862068965514,0.18770699810803873,0.16459132767223136,0.28570007595414565,0.44938995335338927,0.3765508445474935,0.12179665170141012,0.7240479100150483,0.36663245740150036,0.3843827836339212,0.6793616596358631,0.13075125082956912,0.7029210859009172,0.9348958333333334,0.4171524991704106,0.6157009452551617,0.5188024528989565,0.7090083743785155,0.2120140923937708,0.25289669319342506,0.26718214843421606,0.44376788101741643,0.1750857043285627,0.09566309853659458
0.0993311762098211,0.43611727379660525,0.16512414193645072,0.13322686230122596,0.09591707589590791,0.6920487407289191,0.5185972390048557,0.28420770386494654,0.24380606625434187,0.335447441580154,0.7270071509488684,0.14842202270876245,0.8992298959323255,0.528347960738368,0.6403092726322304,0.8516509787798605,0.683602563309303,0.7756770711353421,0.6517511427415835,0.15596797404690269,0.8704371454527833,0.22760416666666666,0.617735950895347,0.7574653449413984,0.24628061419765251,0.37797257521753075,0.1275367924610018,0.1506421283050905,0.3113515187377671,0.6947414204175854,0.8020796274496386,0.7935994357712755
0.07785760367067138,0.6309197797163996,0.8080648980815347,0.24266166916737317,0.11963597215815268,0.13031341830067975,0.12755368008898835,0.5100680347993743,0.2492973820215202,0.26522890529430254,0.12390167259975648,0.14800434100517607,0.25179720056305227,0.1511448347578641,0.17394620397919702,0.4366413515738903,0.4726340281849337,0.8900948019099788,0.49144611320993165,0.20472030560041418,0.6888271684394467,0.15859375,0.42385589482662717,0.7967319868581817,0.5360470910084847,0.5872911211583928,0.28648698712605364,0.2001201435736395,0.49065663443942764,0.829625909567332,0.5229574901142487,0.9015964487556205
0.029381814916247584,0.5400107458864588,0.5125093425259791,0.26386364367199183,0.28197339105835995,0.11627660724675346,0.47344062447820523,0.6829973573214434,0.164495721426756,0.594440044180343,0.3772609511192723,0.15287729421368362,0.2662260289099238,0.4790249684177238,0.16903805515263298,0.0755022166656019,0.7453044486934349,0.7970980958338071,0.27417687809551516,0.26355932644085917,0.8784273387360926,0.10406939331347424,0.09988978467737375,0.7480413508813704,0.7423246543864243,0.24085475726994618,0.29648200014592424,0.14569432677823557,0.48401624184087527,0.5889912488982537,0.07295237680356778,0.7935994357712755
0.05622378059018473,0.7281058904657774,0.08528712030375689,0.24103074805163333,0.14459474614335957,0.6810048295928638,0.6630019996660513,0.4135891312993413,0.20102151995255463,0.5672783080200067,0.7498083310707955,0.25089326732194905,0.09777385101620957,0.8349202342532234,0.5991385734655565,0.40310234756774366,0.6536489522991248,0.7569404273009147,0.4018681257569344,0.36946956395366015,0.2699464199924554,0.3306318933134743,0.1772389588719571,0.3105873151951067,0.8928515981925604,0.5939847883201695,0.2863465633439341,0.3056732428132107,0.502549070337171,0.7144929248446562,0.2530336959410479,0.8645372274246365
0.9926160124600751,0.8444526825432019,0.07026843525179867,0.2328761424729338,0.15367066395616213,0.7157142645918948,0.1439262293092905,0.41043348672777064,0.07484054901296244,0.7869282519739057,0.6360613106328239,0.23418599917849475,0.12969238409917702,0.8218746055930167,0.7981302861044801,0.5076651247633773,0.25556913977974505,0.690849201384942,0.24269692945391985,0.3946862871709937,0.4716487915541979,0.15094439331347428,0.6532814115054761,0.18179272970805752,0.3221626899793758,0.8053165646649402,0.14486281785907718,0.2891805710570277,0.17575245262725034,0.876270630268632,0.30727220217326573,0.9798453555627498
0.6442071761744914,0.8430699784340581,0.09804621302957647,0.24103074805163333,0.17306237730472962,0.3397680996968175,0.8808700893638504,0.32996455015272025,0.1438060662543418,0.6666405632638448,0.5349528480212936,0.2174787310350404,0.2494180077598006,0.3342184902894303,1.0,0.8003560314763422,0.5424906275622097,0.7119848164022538,0.20400261198076244,0.3492961853797933,0.5414193910990165,0.17438189331347426,0.3386407029173405,0.37812593929197386,0.4401098295096632,0.4013684077473204,0.338715954022001,0.3304122504474852,0.5343014455482039,0.8968589502529046,0.3041003597035454,0.933632870792622
0.4348156844987011,0.8097528054448361,0.45360176858513196,0.24918535363033278,0.232055843087946,0.2750823344713508,0.22677157105805293,0.7192872698945053,0.2492973820215202,0.7190239115730649,0.6739769841121478,0.2801309865729942,0.20217066787886828,0.7787910615705308,0.13460031789622143,0.7674513269641792,0.4887852377620923,0.716211939405716,0.2592802083709873,0.37283179371597125,0.2531593182938169,0.33584022664680757,0.056775068140468954,0.4032565901187152,0.3390774060202878,0.5599936623367255,0.12050719232893804,0.3221659145693937,0.6576523256021783,0.8512001075719875,0.281897462415503,0.9244796073534789
0.12689426931977446,0.8438162389169193,0.6813795463629099,0.2377689058201535,0.3727325691863855,0.40603156651314914,0.7261891247286667,0.7413767818954995,0.2492973820215202,0.7423053997104961,0.8951517460748701,0.26899280781069124,0.18955519592948875,0.8197003341496489,0.8564554432572679,0.653658436319545,0.8987936791461515,0.8454246006924709,0.14319725595151533,0.38459959788406023,0.2531593182938169,0.08523610798860896,0.10921518623849133,0.3844086019986592,0.4499312210753272,0.6053151636479842,0.05687541395058406,0.3452556550280499,0.7901157172794516,0.7794848641740433,0.31361588711270644,0.9706920921236062
0.05007829416779317,0.8012369470768153,0.8424906574740209,0.2084123257368353,0.3510718763846176,0.4659842269660207,0.12755368008898835,0.780822339040132,0.893103448275862,0.7752875079051902,0.7687661678104573,0.2912691653352971,0.07310874352321017,0.7714644775506887,0.6368783810350075,0.6931160880914823,0.9823735707518824,0.8351422028649682,0.0658086210052005,0.3745129085971268,0.5800225252578489,0.08523610798860896,0.11577020100074416,0.3577072854952466,0.30460054984989615,0.4976765980337449,0.23313106933180916,0.34195712067681333,0.8640931286397853,0.8444768035034302,0.32947509946130804,0.9615388286844629
0.07505321919727495,0.796979017892805,0.9758239908073543,0.2067814046210954,0.3040432467288854,0.5148929762828369,0.4032327077419659,0.5239528709142849,0.5334612386681348,0.7384251516875908,0.459121501062646,0.2578546290483884,0.08815463211829518,0.862783878172135,0.6506019474238987,0.8082475618307295,0.46793641189665575,0.7883584401457291,0.23716916981489736,0.377875138359438,0.25163276717971117,0.38792355998014094,0.11577020100074416,0.35927795117191796,0.3944218330306535,0.5090069733615595,0.24017006164448862,0.37329319701356106,0.4054056233564676,0.8497958217730038,0.25525398566985213,0.9221912914936932
0.019630691313774918,0.8246555575888725,0.903601768585132,0.26223272255625196,0.16790447953684728,0.30032555992519144,0.12894330111872768,0.3615209958684263,0.663090485469796,0.7675270118593799,0.25116544878335406,0.39847413592246245,0.09008383569600022,0.8005337760042085,0.36641922258339715,0.5747431327756706,0.882642469568993,0.7162119394057161,0.07133638064422299,0.366107334191349,0.22721539018880624,0.35406939331347426,0.23376046672129513,0.3718432765852886,0.12776853109595138,0.4731274514901466,0.20497510008109135,0.6761995420035031,0.6704250708534956,0.8161793014302174,0.272381935006342,0.9455206176659621
0.058090821234640065,0.8480741681009296,0.6424906574740209,0.3829208851210045,0.2966163695078024,0.39025455060449876,0.22069212422774379,0.2621181918639523,0.2148146234008305,0.4043078910579886,0.42936911413617623,0.362275054944978,0.07582207837179551,0.7696920909521904,0.48845406285407755,0.5648787198326863,0.6042452524160514,0.9260253474394089,0.028744350122916935,0.43839527408103846,0.18250853185181304,0.28636105998014094,0.08299512718948014,0.3011633211350787,0.22468313875195678,0.45990868027436277,0.15570215389233516,0.9593146808860256,0.49857941862159416,0.876270630268632,0.21053100684679535,0.904330932189817
0.04660874810996843,0.6677486214067707,0.4116666666666666,0.4302175974774616,0.5831277194725637,0.5001314043042178,0.5647109162353162,0.10314766729534501,0.8103448275862069,0.7779897285924913,0.15579611322805506,0.4235350381376439,0.20890948090553052,0.7718663623955581,0.11219015522918623,0.7773157399071636,0.46220961525221543,0.9302524704428711,0.20560437727080338,0.904815515962262,0.32697093433351876,0.2499027266468076,0.12232521576299699,0.1990700521514422,0.6075452793323791,0.3824844488676293,0.15570215389233516,0.9527176121835523,0.28733499613891705,0.9143693533237898,0.11727883823701742,0.8288165088168843
0.028981188562905248,0.659979023521611,0.9580648980815347,0.2629728043454677,0.7539211173240925,0.5080199122585429,0.32155225865197595,0.05411930440243584,0.5334612386681348,0.8199103601685999,0.20635034453382023,0.41657367641120463,0.1212560618552358,0.5562116046572795,0.30730298652071264,0.5135837725291679,0.3887004778534188,0.6802813938762861,0.3410344884268542,0.8627876439333727,0.1809819807377074,0.08063189331347423,0.20754040767228382,0.22263003730151212,0.5910491759015695,0.37115407353981467,0.06546262850791892,0.9114859327930948,0.8784560707244145,0.8668878170652877,0.02497822236815555,0.8311048246766701
0.08186386720409483,0.5266005147081448,0.24166666666666664,0.5173475707674198,0.5944726167385669,0.4486295094665052,0.432480767095234,0.2668516587213082,0.5734353130560028,0.8742338324892727,0.5728685215006175,0.6624373911868883,0.0939288433561049,0.7218581191980995,0.21604127003458562,0.511610889940571,0.25556913977974505,0.6337830408382001,0.28575689203662946,0.8392520355971949,0.3238101047358207,0.20823605998014094,0.3386407029173405,0.21948870594816947,0.48078514451527316,0.39948001185935134,0.043078276889464195,0.8801498564563471,0.9300385724264839,0.8184204027864032,0.050987330619862346,0.792203455060311
0.08066198814406779,0.6075011692043423,0.4091573241406875,0.742414684739526,0.5360990898168314,0.6295029347551512,0.5155653745199489,0.13589240900112817,0.3182628992628992,0.4760924794817347,0.5475914058477349,0.4360654892452346,0.11271729192638688,0.6722517608455101,0.1247795535484586,0.5885533108958486,0.1496625761114714,0.9577287699653764,0.5555115624209266,0.7972241635683056,0.17945542962360178,0.38531939331347426,0.17476533386101964,0.19121672376808552,0.43913248335247934,0.35038171877215446,0.03167546540705755,0.8339703755390347,0.8858692021229327,0.8475547204168181,0.03338367907469867,0.7372838744254507
0.14929753867443843,0.7671735136047322,0.5588888888888888,0.3914210677775758,0.701114651038997,0.6200367252099609,0.7779037174375313,0.2668516587213082,0.5265646869439969,0.5975581955273997,0.12390167259975648,0.5287792460392535,0.11458187216633274,0.7671159346639532,0.27378514945838106,0.5857488405544083,0.24561976242282546,0.7140983779039849,0.6489307003204066,0.6829083516497269,0.25468586940792254,0.43219439331347426,0.2993106143438235,0.10278824617148957,0.44292037711723314,0.27616776037496854,0.25537499716814444,0.8125299022559969,0.28733499613891705,0.8699657339786757,0.16247766759231647,0.5999849228383004
0.03368574849033123,0.7656809926390097,0.9286204536370902,0.32257680383862825,0.3896445270890286,0.23090668992712962,0.6115109547726442,0.1642932101452636,0.5596422096077271,0.601438443550305,0.12390167259975648,0.5468787865279957,0.10705892786879023,0.5831066316674315,0.485688764226716,0.49811041890330293,0.45460904603943497,0.5809440032949207,0.8739105176286216,0.5215213230587921,0.25468586940792254,0.3931318933134743,0.4828510276869025,0.012160836627553781,0.25988989952807023,0.251807453420167,0.9874301976868071,0.7960372304998139,0.3511971000048028,0.874029528912446,0.3222750912168271,0.5542186056425837
0.28578268105534865,0.7749431114898917,0.911111111111111,0.47296712356457077,0.4282171777934392,0.29717015674346137,0.4584576962876426,0.3236532610095791,0.2492973820215202,0.18817807618216933,0.37065159627755706,0.3246837016222058,0.10524557147129823,0.7479493765185127,0.20231770364569432,0.5707973675984769,0.30494646992796354,0.6232152333295443,0.1260329197697126,0.3711506788348157,0.17945542962360178,0.32542355998014094,0.4762960129246497,0.07608692966807694,0.18681837135391677,0.2608717536824187,0.17879040474205807,0.2380532886128604,0.2256371869423997,0.7727615601054859,0.16239833444968135,0.563371869081727
0.03368574849033123,0.8082602844791137,0.1002871203037569,0.083809952494307,0.570133781614841,0.5035134006205467,0.7671332642511427,0.7492658933244261,0.2492973820215202,0.601438443550305,0.247083805506927,0.17139451640601217,0.1453041091000217,0.8110032483761779,0.26702826685438746,0.2050249356726187,0.3727392825065796,0.3989031089076531,0.16520773666379276,0.1164617743397468,0.2531593182938169,0.11969439331347426,0.4500759538756385,0.10797144290450497,0.1694211922587452,0.05702955581666709,0.16189682319162724,0.2446503573153336,0.19722072086069983,0.7279395329817707,0.21053100684679538,0.823793709522902
0.7713418213062712,0.7855879344499177,0.753601768585132,0.13502087552853984,0.23989188317778667,0.41076467128574423,0.4736641722936626,0.6940421133219405,0.3010215199525545,0.5688443601579013,0.6025173563584216,0.22583236510676757,0.5013283756040047,0.6744260322888779,0.13460031789622143,0.6339296104335764,0.20524173847992896,0.5598083882776089,0.7091832803857516,0.23498037346121445,0.17945542962360178,0.07802772664680761,0.151556796869776,0.48589724944492524,0.5580569690399507,0.5258339732455121,0.1275367924610018,0.0537661099251566,0.22085007719347682,0.7063653349771152,0.06494343748663178,0.6219757462873375
0.03368574849033123,0.745137607201819,0.38137954636290966,0.22961430024145402,0.693687773817914,0.5101598715102418,0.2569609752546357,0.7224429144660759,0.32413793103448263,0.20272900626806378,0.174753949967717,0.2536778120125248,0.6306246742191499,0.49613577393272085,0.06048859270157367,0.4326955863966965,0.37470806219007974,0.6636583115435898,0.5378227315760546,0.3022249687074373,0.1611417768108576,0.9453125,0.151556796869776,0.5784094578008667,0.7725063136404733,0.7062600621004467,0.43416540191020253,0.18197820464183817,0.25667967467369496,0.8355123980786872,0.5641914422206131,0.4938300581393306
0.7372885812721718,0.5208500645584121,0.22139823141486806,0.31442219825992873,0.6540860213832644,0.4486295094665052,0.3683522971893037,0.5822164234547763,0.46206896551724136,0.6751631559855036,0.2543250882399644,0.3915127741960231,0.730777718038611,0.7957833482726037,0.27320387172938854,0.6339296104335764,0.31302207471654286,0.6591457788589743,0.27691247661419344,0.33416615144939316,0.11033119429570357,0.9921875,0.2661335993474648,0.4221045782387712,0.5864364769652752,0.716561957930392,0.2618505140316755,0.0912685099828317,0.30826217637576436,0.604678958391554,0.5388167024628504,0.3933729918947322
0.032050108267387634,0.6479514964524411,0.17250934252597913,0.36171891061638584,0.2450497809456689,0.6857379343654589,0.1684990001669742,0.28105205929337596,0.5265646869439969,0.8878147005694409,0.17217446236809614,0.4096123146847653,0.870938075644342,0.6866678912593458,0.05386499807639829,0.6871974403256916,0.25556913977974505,0.6993034473918667,0.21002658498202137,0.260197096678548,0.25163276717971117,0.3176110599801409,0.43041090958888,0.35299528846523265,0.5913090375016963,0.8317541070965077,0.5639637080277432,0.1506421283050905,0.30826217637576436,0.820243096363988,0.11748874888909518,0.5624795339329057
0.06049457935469414,0.7458838676846802,0.34804621302957645,0.35845706838490604,0.21328406860085983,0.6184590236190959,0.18558816585962426,0.3772992187262793,0.8068965517241378,0.44311037128704056,0.061006929529745645,0.43328094455465893,0.494201516790494,0.7936090768292358,0.2663420885349429,0.7029805010344665,0.6356239701536259,0.9704101389757636,0.06796316225914358,0.23498037346121448,0.3959874422919302,0.3332360599801409,0.48598015417406526,0.2304833656848688,0.7340766026710196,0.7127851661544538,0.514690761838987,0.18362747181745648,0.22517386622999233,0.7153297404018581,0.11748874888909518,0.7157966965385569
0.0798607354373831,0.7294885945749213,0.07582399080735423,0.3861827273524844,0.3199261029012898,0.4281193887852597,0.09431787410251327,0.4356786433003355,0.3079180716766923,0.5168350837222392,0.04204909279008371,0.4291041275187954,0.43524404320939764,0.654857589298568,0.23203317256271472,0.6635228492625292,0.3291732842937014,0.7352339929212967,0.12108621739542537,0.2433859478669923,0.25468586940792254,0.46084022664680757,0.7422812313781507,0.40796858714872913,0.7642582619250685,0.7108967702664847,0.6625096004052556,0.2001201435736395,0.5101310107716649,0.8516185153505885,0.11748874888909518,0.920349143208318
0.024574298676139448,0.767809957231015,0.2424906574740208,0.35845706838490604,0.3040432467288854,0.43443019514871983,0.20665054088049592,0.3993887307272736,0.45172413793103444,0.5789190520887223,0.010452698223980475,0.44302685097167394,0.5144611400157512,0.7548740756934853,0.2286022809654919,0.7049533836230634,0.2133173432685083,0.6993034473918667,0.45275179573677427,0.20808253536272536,0.0015265511141056242,0.4660485599801409,0.14814333362691381,0.7543240135880558,0.6705666044624033,0.6787940401710099,0.7821724697208063,0.2017694107492578,0.24617720091317383,0.7593149519683714,0.11748874888909518,0.7592746978744879
0.0534193961167883,0.7592940988629943,0.12582399080735426,0.4448958875191206,0.34261589743329607,0.45020721105737027,0.18558816585962412,0.3709879295831382,0.28965517241379296,0.45669123936720873,0.15579611322805506,0.4458113956622497,0.48706929817886113,0.8027080474475763,0.283496546521057,0.8029632135589228,0.17528812746975078,0.6866220783814796,0.6351678638245162,0.2181692246496588,0.6166498308833372,0.48427772664680757,0.5287361310226724,0.7920199898281678,0.30077141582656525,0.6485797059635041,0.60619766190382,0.2561952275446617,0.3003857242648387,0.8041369790920867,0.8211106822679606,0.7295265916972719
0.03539121021638277,0.7422623821269526,0.18693510191846532,0.374766279542305,0.46514078790613067,0.5259368874188921,0.24877529092223952,0.39149961929834703,0.22860772684910638,0.4489307433213983,0.21898890236026153,0.6777523869850547,0.6700661515996598,0.9019207641527548,0.21830960617382342,0.8851899827860071,0.15961195346839097,0.6528050943537808,0.8618060090244379,0.20640142048156981,0.6135967286551259,0.16396522664680763,0.6532814115054761,0.7684600046780977,0.4050556097191932,0.6051466005402146,0.5498857234023843,0.2017694107492578,0.3498071378675807,0.8220657899415725,0.7449864629946724,0.7020668013798418
0.054621275176815344,0.8196513679220008,0.1758239908073542,0.3144221982599288,0.21844196636874216,0.6373914427094763,0.19260895753324805,0.3709879295831382,0.8630904854697959,0.47027210744737685,0.20003106562059958,0.686106021056782,0.7888917968091901,0.9019207641527548,0.2594803053404973,0.887162865374604,0.28696899134004455,0.6274423563330067,0.8783892879415054,0.26355932644085917,0.8144189133196833,0.1854166666666667,0.4762960129246497,0.6239587624243353,0.36010993789456985,0.534331754741373,0.07038992312679455,0.28258350235455454,0.42455567519001963,0.9147877611023909,0.4341459009620793,0.9066192480496028
0.03966200898089219,0.8310424513648881,0.04695378697042353,0.6572612096431795,0.08395223976842364,0.6358137411186113,0.20079464186564427,0.344164950724788,0.6768835889180719,0.49937396761916586,0.05371387076237549,0.6596528464963125,0.43524404320939764,0.71138864682613,0.10714871842380402,0.8792713350202165,0.30302519380204346,0.6189881103260818,0.7899451337171456,0.29886273894512616,0.756874130072478,0.6766597733531925,0.6482909599868045,0.29802198978173605,0.3944218330306535,0.6090919554239224,0.16274114620501462,0.2693893649496081,0.30779885566335696,0.6875997085704271,0.26981281676765273,0.7318149075570577
0.06463693401037399,0.8210340720311449,0.17195378697042357,0.8027587660219023,0.10829107489214948,0.6794271280019988,0.09454142191797048,0.22109481243353446,0.447254342116411,0.3984875190236308,0.09260332409584875,0.5970005909583587,0.9727886286810822,0.5852809031107994,0.08656336884046709,0.7490610841728236,0.6199214264174112,0.6274423563330067,0.36317380828377704,0.8711932183391505,0.9695463253805754,0.08523610798860896,0.2930091598727013,0.20360150737678698,0.7188177069975209,0.4769042432660847,0.13360043015879003,0.2710386321252264,0.4515837919723579,0.8377534994348729,0.36829852545246927,0.7798695406125604
0.01482317507366678,0.844452682543202,0.48528712030375687,0.7864495548645032,0.10664203430043004,0.7015149502741095,0.045172332387145735,0.18007143300311662,0.7355042785732441,0.33058317862278996,0.1368382764883931,0.54409424183742,0.8445108355963044,0.6657289465154067,0.02607477613889342,0.7076305498122896,0.5362887953419706,0.7379183737853341,0.6240557819448054,0.5980120501513705,0.3329669311421929,0.40354855998014094,0.12888023052524983,0.15251163720478625,0.31499309501130607,0.5958731842081386,0.26832603089520646,0.33536005197434005,0.7511967774372307,0.8161793014302174,0.28015302321894103,0.528154796036118
0.045406869049941394,0.8167761428471344,0.436398231414868,0.7815567915172836,0.21844196636874216,0.5275145890097572,0.03486469269216711,0.19584965586096967,0.579310344827586,0.392667146989273,0.04836837170330435,0.5371328801109807,0.39200878201123684,0.8697085773471077,0.06302350479844786,0.6898746065149178,0.607544131711788,0.6041931798139637,0.19847485234173995,0.3522330545264261,0.32697093433351876,0.19895833333333332,0.4676261128397573,0.32786463763849133,0.5828011241861647,0.601538371872046,0.34575494633468046,0.31721811304253883,0.5109964137141122,0.8471363126382171,0.0654192880188741,0.5121365850176173
0.05902816506358115,0.8430699784340581,0.42528712030375687,0.7538311325497052,0.14748366445804129,0.4849166460564011,0.0802762907552654,0.1737601438599754,0.29757324409048536,0.4353498752412302,0.13615457256273839,0.49397243740705704,0.16425962869297056,0.8762313916772109,0.1247795535484586,0.6326610114456088,0.550566232350789,0.36113360711487824,0.6738621812976735,0.6622306386115133,0.28826007280519966,0.22890625000000003,0.4500759538756385,0.15352074752797357,0.896227089371544,0.6712404566191335,0.29648200014592424,0.2891805710570277,0.44432456319868857,0.8198246885853868,0.1177546887692597,0.43433384578489875
0.07451650172167625,0.775689371972753,0.5975093425259792,0.6543449444895713,0.25350575989699053,0.5070044683285118,0.3470663743529746,0.10228479431390125,0.08033186478014112,0.3499844187373159,0.2233606215651833,0.45498881173899686,0.10140056381119356,0.6983430181659234,0.25343798844431437,0.5320439994271688,0.25556913977974505,0.487947297218749,0.40300195898557184,0.08384814564532873,0.2348456654810727,0.08523610798860896,0.8373289454308167,0.1692274042946869,0.6029325803960847,0.6420546019094969,0.9979886861558263,0.42386166413390314,0.391352099359397,0.8116970987178459,0.18309464364549868,0.6814719586417692
0.03368574849033123,0.6613617276307552,0.16512414193645072,0.5351246109289847,0.44987787059520723,0.7393797884548703,0.33302479100572674,0.02071138213880116,0.06309048546979629,0.36356528681748407,0.12390167259975648,0.4410660882861182,0.09777385101620957,0.5004843168194563,0.4815579707436597,0.5438812949587499,0.25556913977974505,0.6554894752178181,0.16520773666379276,0.38329419290346994,0.3075616398846158,0.2707360599801409,0.7370372195683484,0.023402918582402836,0.2945317167327701,0.2155502523711601,0.9502639622117256,0.39780324275913403,0.18316558402576863,0.4289169870813182,0.37467392881660716,0.39792663241921084
0.7809568537864875,0.6535921297455956,0.2702684352517987,0.3291004883015878,0.3578788147442197,0.7346466836822751,0.15048420749150476,0.10638713225694305,0.41379310344827597,0.37520603088619964,0.4628612923762456,0.4148971588957828,0.1164464524062786,0.513529945479663,0.13493894036130885,0.7023462015404828,0.4564828186077751,0.20451869983659807,0.31287119556867254,0.22035467399516104,0.2714729711065611,0.08523610798860896,0.13332035996486313,0.5748636376617071,0.18681837135391677,0.7599950633536815,0.24720905395716808,0.21991134968105913,0.46007746742053984,0.6338132760219688,0.2749194089821182,0.16131940316732224
0.10522863980678042,0.4429299604910219,0.9308426758593125,0.054290280299414836,0.4317260349696021,0.6279252331642862,0.4420706097623549,0.2810520592933759,0.9517241379310345,0.10827287276778744,0.4495908066584822,0.17710283302169244,0.07101246892283831,0.2789260567402807,0.5236589583266544,0.7674513269641793,0.596196017362327,0.595738933807039,0.31452952346037927,0.07056733808419972,0.49563525906715594,0.31500689331347426,0.7717787978082884,0.6883560551678599,0.18400782374634686,0.17959658718637592,0.8628400337523809,0.08796997563159506,0.502549070337171,0.30885357937503377,0.4373177434317996,0.5922276401101216
0.0411284232720052,0.6011142754283268,0.5302871203037569,0.1386089019831676,0.3510718763846176,0.1949991835261464,0.12755368008898835,0.5580338322872473,0.9458491061594514,0.36223510586693236,0.12390167259975648,0.10846380639900083,0.10705892786879023,0.35096038040336214,0.3692688364516275,0.5727702501870736,0.7249042886689423,0.7886438498268823,0.5080293921269992,0.07380094328272953,0.6888271684394467,0.4016597733531924,0.17476533386101964,0.7590360106180697,0.311322711997951,0.5514115992869798,0.7431771644368302,0.17373186876374672,0.7511967774372307,0.8453136190606323,0.11748874888909518,0.8398119205414029
0.03966200898089219,0.5812073336174188,0.6375093425259791,0.2964820659867899,0.1412966649599207,0.11690768788309949,0.5574508588857399,0.5667118548590666,0.2492973820215202,0.891694948592346,0.515943235247299,0.1924178288198589,0.08334502266933802,0.37813877344545926,0.10028693522935839,0.06741042098672197,0.3190338927064624,0.7294641277784094,0.29681241131467434,0.307268313350904,0.5414193910990165,0.06927083333333336,0.19009542810533192,0.6867853894911886,0.4050556097191932,0.17098410941508915,0.3246379693966421,0.0699929634173556,0.589899931037091,0.5912323502544394,0.21005530463812155,0.7798695406125603
0.055422527883500036,0.7075625050285868,0.14584267585931243,0.22961430024145402,0.6012795550981689,0.5679725727114145,0.6840643746869232,0.38676615244099116,0.2492973820215202,0.7779897285924913,0.6929348208518098,0.17153374364054097,0.09777385101620957,0.819700334149649,0.5202280667294316,0.25612259471727744,0.2968708651393842,0.7270651565955251,0.5284255401897164,0.37283179371597125,0.32697093433351876,0.3306318933134743,0.0546601828178292,0.30273398681175,0.6395601400368139,0.45990868027436277,0.40812113035328845,0.3370093191499584,0.5465331123557592,0.6875997085704271,0.26001174937443267,0.8164825943691338
0.04981375893670719,0.831042451364888,0.06777777777777777,0.2181978524312747,0.2502076787135511,0.6746940232294036,0.21483622521289214,0.33627583929586147,0.2492973820215202,0.7003847681343873,0.6929348208518096,0.2606391737389641,0.07853541322038086,0.7983595045608407,0.6849108633961271,0.4484786471054714,0.31095828791788316,0.6253287948312755,0.2648079680100098,0.40477297645792704,0.28978662391930526,0.17438189331347426,0.6729464557922346,0.1440967534679456,0.2565144083490867,0.7297807291461758,0.10544446090807222,0.2891805710570277,0.6843246922257173,0.8722068353348614,0.272381935006342,0.8741366584381906
0.06423630765703164,0.8686175535381204,0.035268435251798645,0.2508162747460727,0.23824284258606698,0.36658902674152316,0.840851576824194,0.30787503815172607,0.589655172413793,0.6569399432065818,0.44016366432298387,0.19102555647457103,0.12969238409917702,0.20463191226471125,0.9320683463749881,0.7510339667614205,0.3907642646520786,0.92813890894114,0.13214173667347034,0.3677884490725045,0.3238101047358207,0.21865272664680757,0.3320856881550875,0.37969660496864527,0.34608824997838183,0.35982369821199994,0.2824040155205653,0.3287629832718669,0.8732056402630843,0.8691289184214734,0.31678772958242674,0.9615388286844629
0.0308482292073606,0.8310424513648881,0.32026843525179866,0.24429259028311312,0.4878305824381371,0.24352830265404996,0.46172882644850183,0.6814195350356581,0.8620689655172413,0.7073831675043493,0.5728685215006175,0.2731696248465548,0.3126246141822166,0.7892605339425003,0.13460031789622143,0.7806272055903735,0.4205753649895171,0.9661830159723012,0.32561332403925713,0.37619402347828235,0.18250853185181304,0.35667355998014094,0.02188510900656504,0.40639792147205783,0.46732840017049887,0.5411097034570344,0.15570215389233533,0.29742690693511925,0.875830049074819,0.8041369790920867,0.28824114735494366,0.8668255432844222
0.07024570295716681,0.8374293451409036,0.6036017685851319,0.2508162747460727,0.5899346578321657,0.40918696969487917,0.6349188329715557,0.6924642910361553,0.6206896551724139,0.7675270118593799,0.9141095828145321,0.2731696248465548,0.07310874352321017,0.8323440779649863,0.8049920692989256,0.6812787925599011,0.5581668015635695,0.8369703546855463,0.09344741920031294,0.3711506788348157,0.5424073053656885,0.08523610798860896,0.16821031909876683,0.4016859244420439,0.6817777447710214,0.6241991225276753,0.0822157862762301,0.3419571206768133,0.3545942476165035,0.8310301953663156,0.3421624693401894,0.9844219872823213
0.04286701980763095,0.7650445490127269,0.8369351019184652,0.2035195623896156,0.8582941721713219,0.48176124287467104,0.12755368008898835,0.7855558058974881,0.5999999999999999,0.7985689960426214,0.7624468888972367,0.312153250514615,0.08725465366720184,0.8649581496155028,0.6952035381877953,0.785207270261551,0.2213929480570876,0.9154575399307529,0.12661397703444785,0.3610639895478822,0.28062979751293315,0.46865272664680757,0.0961051567139858,0.35299528846523265,0.2800275657623224,0.5373329116810963,0.1979361077684119,0.3469049222036682,0.5567874065110892,0.799654776379715,0.3041003597035454,0.8645372274246363
0.135972584324392,0.7714314427887425,0.9980462130295764,0.2230906157784944,0.8576742333098408,0.6373914427094763,0.5857732912561882,0.5646606858875458,0.8079180716766926,0.7345449036646857,0.33273592279823316,0.2564623567031005,0.0939288433561049,0.7222600040429689,0.7329433457572465,0.7556140314325981,0.25744291234808525,0.9471609624567205,0.2648079680100098,0.3341661514493931,0.2531593182938169,0.3488610599801409,0.14854527481200833,0.3655606138786033,0.4879485294590106,0.5807660171043858,0.09939021539089983,0.3584497924329963,0.44818503152279654,0.8475547204168181,0.2577914596456284,0.8714021750039939
0.03368574849033123,0.8310424513648881,0.9647128796962432,0.28343469706087066,0.41976119884211777,0.24195060106318492,0.20500711686981865,0.5080587760228671,0.7517241379310344,0.7733473838937377,0.29476847328457656,0.38455141246958385,0.11458187216633274,0.7831396044572663,0.38758584989572664,0.5786888979528643,0.19143933704690938,0.6971898858901354,0.16530829450760515,0.3711506788348157,0.18250853185181304,0.3749027266468076,0.14854527481200833,0.39540326173535856,0.22146018855861657,0.5033417856976523,0.1486631615796557,0.35515125808175974,0.6190577102586425,0.9304754705956911,0.28506930488522336,0.9267679232132647
0.36697373966158836,0.8550975055032282,0.7313795463629097,0.3551952261534262,0.16790447953684728,0.43600789673958484,0.21764454188234172,0.3268089055811497,0.4034482758620691,0.49937396761916586,0.19239615489040213,0.3720209613619931,0.12969238409917702,0.8171241778614119,0.21878598331236387,0.6615499666739325,0.3009614070033837,0.8116076166647722,0.045880405003886585,0.3963674020521492,0.25468586940792254,0.30198605998014094,0.08955014195173297,0.3325766346685053,0.2495035643909926,0.4731274514901466,0.09235122307822038,0.37329319701356106,0.2829350526560673,0.873611121133845,0.20767634862404707,0.9386556700866044
0.03368574849033123,0.8082602844791137,0.3044444444444444,0.4220629918987621,0.8252885821035509,0.545884750439304,0.6910851663605471,0.09304960466631909,0.2492973820215202,0.5439968198825755,0.2758624125792474,0.4291041275187954,0.1973610584299111,0.8910494069359159,0.3252808584901602,0.7595597966097918,0.16533875011283122,0.8182337108511188,0.11660744708254146,0.6556348036506723,0.3075616398846158,0.29417355998014094,0.14199026004975548,0.22420070297818348,0.2322589262814645,0.42214076251498056,0.25424804626984754,0.9576654137104073,0.4324321273009453,0.9371987746642484,0.21433721781045975,0.8425464039755993
0.03368574849033123,0.7344927842417931,0.9197315647482013,0.33403693012160235,0.21844196636874216,0.48221442914386864,0.8876673332220171,0.054866305350314774,0.2492973820215202,0.6499415438366198,0.14315755540161376,0.42214276579235605,0.5972403262793295,0.6236140194016805,0.21878598331236387,0.5254210680607491,0.6469984542379418,0.6232152333295443,0.28575689203662946,0.8476576100029727,0.11033119429570357,0.10667355998014091,0.25342551100805366,0.21791804027149816,0.39768602348257065,0.33716294755637066,0.03603928457678474,0.9164337343199498,0.2767563679320617,0.9103055583900193,0.026246959356043684,0.8150866136581693
0.03368574849033123,0.6543383902284567,0.23944444444444446,0.47119250319198064,0.16790447953684728,0.41392007446747436,0.2913628544553931,0.27316294786444945,0.164495721426756,0.8393116002831259,0.8066818412897813,0.6652219358774639,0.41261058697901093,0.8370945056965912,0.23971442205542307,0.5589600720668958,0.17528812746975078,0.6126474258208885,0.31892344987076426,0.8409331504783504,0.25163276717971117,0.21084022664680757,0.35830574720409897,0.21320604324148418,0.6817777447710214,0.376819261203722,0.08531223076554093,0.8883961923344388,0.2640928060722132,0.8789301394034186,0.06621217447451992,0.7693202964624526
0.65155454165691,0.6479514964524411,0.3258239908073542,0.7212127102349072,0.16790447953684728,0.6668055152750785,0.3891911243947182,0.07987971785574997,0.2655172413793104,0.4954937195962606,0.7371697732443542,0.44024230628109823,0.7125038820316348,0.7635711614669564,0.1954559204512487,0.5530414243011051,0.7263030256614836,0.9725237004774947,0.4930478784999725,0.7652829808263498,0.2699464199924554,0.3124027266468075,0.2665355405325593,0.16294474158800154,0.3778370390583576,0.3107254051248032,0.1275461846416175,0.8323211083634164,0.5101310107716649,0.8542780244853753,0.03592115305047494,0.7029591365286633
0.02523946026056776,0.6990466466605659,0.21471287969624311,0.533311204846947,0.33065106130581173,0.5742833790748747,0.9089532560583461,0.3410093061532174,0.23793103448275862,0.5024921189662225,0.12390167259975648,0.362275054944978,0.773498366673466,0.7940109616741051,0.2669233662639354,0.5780545984588804,0.8118094293052646,0.9873186309896128,0.6152113665223694,0.6627349730758599,0.24400249188744474,0.3749027266468076,0.3517507324418461,0.08362612491609933,0.6116693051900813,0.23349001330686667,0.07390941928313427,0.791089428972959,0.34502002811865784,0.8744479366910471,0.1983194875001563,0.5324796049746182
0.060759114585780094,0.7919748282259332,0.9847315647482013,0.2883274604080904,0.2557747393501909,0.18278679140574586,0.9854798853008468,0.18796054443204313,0.2275862068965517,0.6381207402954917,0.12390167259975648,0.47198032505258514,0.7734983666734662,0.6327129900200209,0.48845406285407755,0.4424751299048714,0.25556913977974505,0.9217982244359466,0.16520773666379276,0.49781760323449853,0.36043741036130916,0.294173559980141,0.541846160547178,0.02207967512388125,0.8305788077412549,0.15663230066652392,0.9416767476543907,0.7828430930948674,0.29250927215391304,0.8834123421157901,0.36446059606410763,0.5290471311849395
0.06223317589031991,0.7792010406739022,1.0,0.5088473881108486,0.29723630836928344,0.3161025758338418,0.36110795770022247,0.33627583929586147,0.2620689655172414,0.11852762417102111,0.22530818127348218,0.3901205018507352,0.730777718038611,0.5783562039358267,0.289462350215154,0.5905261934844455,0.2968708651393842,0.5281049657516413,0.06467478777656303,0.3509773002609488,0.25468586940792254,0.3150068933134742,0.463185983400144,0.05001387943533286,0.5410721925305494,0.4202523666270115,0.7403615675117584,0.5854898473444966,0.3703471518383548,0.7951725736673435,0.17135882650753342,0.6320213448753023
0.05114408210556382,0.86435962435411,0.10082399080735413,0.05559501719200674,0.11736699270495192,0.5595218070962557,0.6625234683141463,0.7129759807513641,0.1862068965517243,0.5087005158028708,0.3279705755961513,0.13561311713211413,0.49793603706850786,0.4103179908073022,0.18125597692381698,0.3774548739159844,0.21519111583684847,0.5092310192980205,0.9269770101632374,0.04938529058163955,0.2531593182938169,0.15094439331347423,0.44705200678564283,0.09886158197981125,0.44292037711723314,0.11943090167353249,0.3039440441256327,0.191873807695548,0.3034750666268415,0.6651886950085696,0.31044404464298603,0.8398119205414029
