L_Quad: EMG 1,L_Quad: Acc 1.X,L_Quad: Acc 1.Y,L_Quad: Acc 1.Z,L_Hamstrings: EMG 2,L_Hamstrings: Acc 2.X,L_Hamstrings: Acc 2.Y,L_Hamstrings: Acc 2.Z,L_AnteriorTibialis: EMG 3,L_AnteriorTibialis: Acc 3.X,L_AnteriorTibialis: Acc 3.Y,L_AnteriorTibialis: Acc 3.Z,L_Calf: EMG 4,L_Calf: Acc 4.X,L_Calf: Acc 4.Y,L_Calf: Acc 4.Z,R_Quad: EMG 5,R_Quad: Acc 5.X,R_Quad: Acc 5.Y,R_Quad: Acc 5.Z,R_Hamstrings: EMG 6,R_Hamstrings: Acc 6.X,R_Hamstrings: Acc 6.Y,R_Hamstrings: Acc 6.Z,R_AnteriorTibialis: EMG 7,R_AnteriorTibialis: Acc 7.X,R_AnteriorTibialis: Acc 7.Y,R_AnteriorTibialis: Acc 7.Z,R_Calf: EMG 8,R_Calf: Acc 8.X,R_Calf: Acc 8.Y,R_Calf: Acc 8.Z
0.0005893055998072569,0.8669616617628556,0.0005652348910357831,0.0005727846256828919,0.004651324513042473,0.00027645606659922484,0.0007292254503401244,0.0002655985722953369,0.0012666284558446028,1.1256293523141928e-05,0.0010073112030908394,0.43240926999733775,0.0014918287600226134,0.8825132417273532,0.0005465867561038972,0.0020579696770098503,0.3925208536823269,0.0006573030016296319,0.00020162241860376636,1.1387768716928741e-05,0.027689886772928652,0.08523610798860896,0.002282504253523991,0.0009500937622703772,0.26869025603186314,0.00011377264906230188,0.001996156327654967,0.00015047045167939336,0.5322455426348721,0.9092446745848867,0.0006644366982948719,0.0007667678089425469
0.0005893055998072569,0.8669616617628556,0.0005652348910357831,0.0005727846256828919,0.004651324513042473,0.00027645606659922484,0.0007292254503401244,0.0002655985722953369,0.0012666284558446028,1.1256293523141928e-05,0.0010073112030908394,0.43240926999733775,0.0014918287600226134,0.8825132417273532,0.0005465867561038972,0.0020579696770098503,0.3925208536823269,0.0006573030016296319,0.00020162241860376636,1.1387768716928741e-05,0.027689886772928652,0.08523610798860896,0.002282504253523991,0.0009500937622703772,0.26869025603186314,0.00011377264906230188,0.001996156327654967,0.00015047045167939336,0.5322455426348721,0.9092446745848867,0.0006644366982948719,0.0007667678089425469
0.0005893055998072569,0.8669616617628556,0.0005652348910357831,0.0005727846256828919,0.004651324513042473,0.00027645606659922484,0.0007292254503401244,0.0002655985722953369,0.0012666284558446028,1.1256293523141928e-05,0.0010073112030908394,0.43240926999733775,0.0014918287600226134,0.8825132417273532,0.0005465867561038972,0.0020579696770098503,0.3925208536823269,0.0006573030016296319,0.00020162241860376636,1.1387768716928741e-05,0.027689886772928652,0.08523610798860896,0.002282504253523991,0.0009500937622703772,0.26869025603186314,0.00011377264906230188,0.001996156327654967,0.00015047045167939336,0.5322455426348721,0.9092446745848867,0.0006644366982948719,0.0007667678089425469
0.005968916272488291,0.4373904530159877,0.0005652348910357831,0.001970968168371688,0.035119180610620616,0.00254230834351992,0.003557200336475787,0.0034434904380955425,0.04757007673170665,0.0007814819518131336,0.0035533486772273333,0.28659967995920993,0.0617338835411913,0.44282163394659474,0.002763926270722726,0.0020579696770098503,0.07791186490475328,0.0008513425728973484,0.002428204001202101,0.000688540842846379,0.15369679259410834,0.528725,0.0026403599462355323,0.0012654853356940884,0.10510559159356059,0.0023958990796729513,0.001996156327654967,0.0026574642000738113,0.07434505374598267,0.45952573113856654,0.0019420548450982695,0.0027654297165512144
0.005379610672681023,0.002673111057324957,0.0044761111111111,0.0033691517110604847,0.02581653158453567,0.006079157022041607,0.012041124994883086,0.007892791501781493,0.09260620689655186,0.002333383574317345,0.008644791697609192,0.13966847531971824,0.048979422778840466,0.0003731599837179595,0.0022173395146189044,0.0004686154636362497,0.06993844026852829,0.002748067289959668,0.002428204001202101,0.002720336288211008,0.2616216594469403,0.002744214666180097,0.00563857558518246,0.0022135410436810343,0.13279421872165703,0.003917190807020836,0.001996156327654967,0.005164457948468228,0.07776801092101077,0.00980678769224639,0.0006644366982948719,0.0047640916241598824
0.005968916272488291,0.002673111057324957,0.009517457113257985,0.0033691517110604847,0.02581653158453567,0.006079157022041607,0.003557200336475787,0.007892791501781493,0.09387283535239627,0.0015517076101031254,0.002545405546245364,0.13854658226388528,0.07272324808006966,0.0008757965373885203,0.0005465867561038972,0.0011211333262551254,0.05763654392530173,0.002748067289959668,0.002226581582598212,0.0013656939169758293,0.15426308227766797,0.0006462979995134714,0.002282504253523991,0.002846205178244269,0.20639094397026664,0.0031563561037580698,0.002835306103547382,0.005164457948468228,0.07434505374598267,0.008001356439703178,0.0006644366982948719,0.0047640916241598824
0.0061352077410440084,0.002673111057324957,0.009517457113257985,0.004026249828592064,0.04273614463501528,0.007350153423642459,0.0007292254503401244,0.006621382303895747,0.06945482758620686,1.1256293523141928e-05,0.00408349988939989,0.13910752879180177,0.06648266557652932,0.002125187912783734,0.0005465867561038972,0.0011211333262551254,0.08953033747731687,0.001045382144165065,0.002226581582598212,0.0013656939169758293,0.12657373414158662,0.001695256332846784,0.002282504253523991,0.002846205178244269,0.0887144683810461,0.0031563561037580698,0.0036744558794397975,0.0038358083117901523,0.08119096809603885,0.006195476966888666,0.0018914339638056745,0.0056858252524816
0.0046240136043180155,0.002673111057324957,0.0028035682243691498,0.001398346634800357,0.041050459633324744,0.006714655222842033,0.0049281284802661215,0.00407919503703845,0.07072180086963767,0.001574220197149323,0.00408349988939989,0.14135089722176405,0.045995765258795236,0.0026276070393100245,0.0019288929806249159,0.0050947161479480575,0.07791186490475328,0.002748067289959668,0.004251540746592657,1.1387768716928741e-05,0.17234512124601553,0.0010489583333334284,0.002998215638947073,0.0022135410436810343,0.07741704694598131,0.0016350643764101859,0.0036744558794397975,0.0031713185667335293,0.10887527088790055,0.006195476966888666,0.0006644366982948719,0.003842129164252154
0.004790305072873755,0.002673111057324957,0.003910320664519684,0.0018868177686345257,0.026659374085380813,0.004808160620440615,0.0049281284802661215,0.002172239022438328,0.09387283535239627,0.003137572125577849,0.00408349988939989,0.3849816459090168,0.06499083681650666,0.00663364716967913,0.0035993026499802293,0.0050947161479480575,0.08953033747731687,0.001045382144165065,0.00020162241860376636,0.000688540842846379,0.08136863672071716,0.0014516186671533853,0.002282504253523991,0.0015808769091177996,0.07741704694598131,0.0016350643764101859,0.0036744558794397975,0.0031713185667335293,0.1054523137128725,0.006195476966888666,0.0006644366982948719,0.003842129164252154
0.004790305072873755,0.007819244269119938,0.008385876220075398,0.004514720962426196,0.041050459633324744,0.0006354982008004257,0.0049281284802661215,0.001005810625590408,0.09133957844070745,0.003919054077390939,0.006628905435645113,0.3849816459090168,0.06499083681650666,0.00663364716967913,0.0035993026499802293,0.0058895905428937015,0.08770781350914758,0.0006573030016296319,0.004654785583800436,0.000688540842846379,0.24467327711940642,0.0006462979995134714,0.002998215638947073,0.0022135410436810343,0.13279421872165703,0.002395710240084128,0.002835306103547382,0.005164457948468228,0.08119096809603885,0.00980678769224639,0.0006644366982948719,0.0047640916241598824
0.005968916272488291,0.002673111057324957,0.006148098442297541,0.005828591013266306,0.041050459633324744,0.004089760811719996,0.0049281284802661215,0.00164135744230475,0.07072180086963767,0.006263499932830211,0.011720348456026972,0.3849816459090168,0.06499083681650666,0.011013064710910465,0.004981265785341554,0.006684267649580545,0.07973434136936502,0.0023604108597245466,0.004654785583800436,0.0013656939169758293,0.10001696537262465,0.001695256332846784,0.002282504253523991,0.002846205178244269,0.07741704694598131,0.0031563561037580698,0.0036744558794397975,0.005164457948468228,0.08119096809603885,0.0116126671650609,0.0019420548450982695,0.0047640916241598824
0.005968916272488291,0.004388630725562771,0.008386431775630785,0.0032008509115861593,0.05035310865940969,0.002818764410119075,0.0049281284802661215,0.0006357045989428725,0.09133957844070745,0.003919054077390939,0.00408349988939989,0.3849816459090168,0.05847693026587594,0.008385675098744905,0.0035993026499802293,0.0058895905428937015,0.06993844026852829,0.0006573030016296319,0.004654785583800436,1.1387768716928741e-05,0.09097594588845064,0.0014516186671533853,0.002282504253523991,0.0015808769091177996,0.10510559159356059,0.0031563561037580698,0.001996156327654967,0.0038358083117901523,0.08119096809603885,0.008001356439703178,0.0019420548450982695,0.0047640916241598824
0.005968916272488291,0.008676791206779614,0.010624209553408641,0.003857785937006178,0.02285089207318361,0.0019066523725603858,0.002828676965303123,0.001005810625590408,0.09133957844070745,0.00470053602920403,0.00408349988939989,0.3849816459090168,0.048979422778840466,0.012764875212831825,0.004981265785341554,0.004299841753002414,0.08953033747731687,0.001045382144165065,0.004251540746592657,1.1387768716928741e-05,0.11696642497385344,0.0025008374171532856,0.002998215638947073,0.0015808769091177996,0.049728502298401964,0.0016350643764101859,0.001996156327654967,0.0031713185667335293,0.09332164090445567,0.004390045714345454,0.0006644366982948719,0.0047640916241598824
0.008658721608828775,0.006103724600882123,0.008385876220075398,0.0032008509115861593,0.041050459633324744,0.002901350477721191,0.007756103366401784,0.0015366922057240208,0.07072180086963767,0.003137572125577849,0.009174310981890338,0.3849816459090168,0.042738840275300116,0.010137268173521945,0.0063635720098626485,0.004299841753002414,0.06993844026852829,0.0018967247170623665,0.00020162241860376636,0.0006771530741294876,0.10001696537262465,0.0035500561671531856,0.002998215638947073,0.00031523450685609183,0.10510559159356059,0.0016350643764101859,0.001996156327654967,0.002506828821676906,0.07434505374598267,0.006195476966888666,0.0018914339638056745,0.0047640916241598824
0.005968916272488291,0.002673111057324957,0.005041346002146884,0.0012297196511029103,0.02581653158453567,0.0035368486785216867,0.0049281284802661215,0.005985835487181406,0.09133957844070745,0.002355896161363586,0.00408349988939989,0.13742482843528683,0.048979422778840466,0.004752577524949295,0.0005465867561038972,0.0019158104329419256,0.0858852895409783,0.001045382144165065,0.002226581582598212,1.1387768716928741e-05,0.11696642497385344,0.0025008374171532856,0.0026403599462355323,0.0012654853356940884,0.07741704694598131,0.002395710240084128,0.0036744558794397975,0.0018425040033378678,0.14775927634840588,0.006195476966888666,0.0012779353310502731,0.001998433076022708
0.005968916272488291,0.002673111057324957,0.018469679335480185,0.007968349257446964,0.035119180610620616,0.009256963566361952,0.002828676965303123,0.008528338318495835,0.046303103448276026,0.006241375370586272,0.006099386151363828,0.1329379523481277,0.048979422778840466,0.002125187912783734,0.006075125475868737,0.003647521178642338,0.0858852895409783,0.0008513425728973484,0.006478675105154849,0.0013429183795420465,0.1531305029105489,0.0006462979995134714,0.0026403599462355323,0.00031523450685609183,0.11640301302862543,0.00011377264906230188,0.002835306103547382,0.0018425040033378678,0.08119096809603885,0.006195476966888666,0.0012779353310502731,0.001998433076022708
0.004790305072873755,0.002673111057324957,0.013994123779924717,0.011253350568770287,0.035119180610620616,0.0124347701106823,0.014869801960186052,0.012341934783238914,0.063666896551724,0.006241375370586272,0.011190197243854555,0.1318163377467638,0.07448840088718268,0.009132212493324998,0.0019288929806249159,0.00603174978696167,0.06993844026852829,0.0006573030016296319,0.002226581582598212,0.0020202395651595984,0.0638539647096241,0.0006462979995134714,0.002998215638947073,0.0006326641345632346,0.13279421872165703,0.0015214805669367074,0.004832166330433403,0.0011781791849988295,0.10109847906221371,0.004390045714345454,0.0006644366982948719,0.0010766994477009902
0.004790305072873755,0.002673111057324957,0.013994123779924717,0.010596252451238672,0.045701784146367344,0.010527959967962804,0.014869801960186052,0.014248890797839035,0.05335800776618931,0.0038965414903446988,0.005091443020381859,0.13349889887604416,0.045995765258795236,0.002125187912783734,0.003311199205145935,0.00603174978696167,0.12142403602221681,0.0006573030016296319,0.002226581582598212,1.1387768716928741e-05,0.13504846394220085,0.0010489583333334284,0.0026403599462355323,0.00031523450685609183,0.09818345543166576,0.0016350643764101859,0.0036744558794397975,0.0018425040033378678,0.12785181171430224,0.006195476966888666,0.0012779353310502731,0.0029201667043444257
0.005379610672681023,0.002673111057324957,0.0229452348910359,0.009939154333707055,0.041050459633324744,0.009256963566361952,0.0007292254503401244,0.010435294333095922,0.09133957844070745,0.0038965414903446988,0.007636848566627082,0.13349889887604416,0.03948191529180499,0.00738040199140359,0.006075125475868737,0.0028528440719555377,0.08953033747731687,0.001045382144165065,0.002226581582598212,0.0013429183795420465,0.10001696537262465,0.001695256332846784,0.002282504253523991,0.00031523450685609183,0.07741704694598131,0.0016350643764101859,0.0036744558794397975,0.002506828821676906,0.1054523137128725,0.006195476966888666,0.0012779353310502731,0.0029201667043444257
0.004790305072873755,0.007819244269119938,0.005041901557702517,0.004683347946123643,0.035119180610620616,0.006714655222842033,0.0007292254503401244,0.007892791501781493,0.057878965517241344,0.003115059538531565,0.0035533486772273333,0.13630307460668842,0.048979422778840466,0.00738040199140359,0.003311199205145935,0.0011211333262551254,0.1337259323654434,0.001045382144165065,0.00020162241860376636,1.1387768716928741e-05,0.10001696537262465,0.002744214666180097,0.002998215638947073,0.0015808769091177996,0.07741704694598131,0.0016350643764101859,0.001996156327654967,0.002506828821676906,0.11322910553855936,0.008001356439703178,0.0006644366982948719,0.0029201667043444257
0.004790305072873755,0.002673111057324957,0.0022377777777777335,0.0006570981175316152,0.05331852127281642,0.004808160620440615,0.0049281284802661215,0.004714741853752757,0.09133957844070745,0.0015517076101031254,0.006628905435645113,0.14135089722176405,0.06797449433655196,0.003503621003842815,0.003311199205145935,0.0011211333262551254,0.08953033747731687,0.0006573030016296319,0.00020162241860376636,0.0006771530741294876,0.11696642497385344,0.002744214666180097,0.002998215638947073,0.0009500937622703772,0.10383216614919819,0.0016350643764101859,0.001996156327654967,0.0031713185667335293,0.09332164090445567,0.008904072065974784,0.0018914339638056745,0.0010766994477009902
0.005379610672681023,0.002673111057324957,0.010624209553408641,0.004514720962426232,0.03427633810977535,0.0006354982008004257,0.005656651851438785,0.000901145389009679,0.09133957844070745,0.00470053602920403,0.006628905435645113,0.3849816459090168,0.06322571230121396,0.012764875212831825,0.004981265785341554,0.00350516464631557,0.07176091673314001,0.0006573030016296319,0.00020162241860376636,0.0013429183795420465,0.10001696537262465,0.0006462979995134714,0.002282504253523991,0.0006326641345632346,0.10510559159356059,0.002395710240084128,0.001996156327654967,0.002506828821676906,0.07434505374598267,0.008001356439703178,0.0006644366982948719,0.001998433076022708
0.007480110409214239,0.002673111057324957,0.019575876220075332,0.007142787248329463,0.035119180610620616,0.002818764410119075,0.003557200336475787,0.0002655985722953369,0.06818785430277603,0.00470053602920403,0.00408349988939989,0.3849816459090168,0.08398590837421817,0.010137268173521945,0.007745878234383744,0.004299841753002414,0.10183223382054349,0.0006573030016296319,0.004251540746592657,0.0020202395651595984,0.09097594588845064,0.0014516186671533853,0.002998215638947073,0.00031523450685609183,0.0887144683810461,0.0016350643764101859,0.001996156327654967,0.0011781791849988295,0.07434505374598267,0.00529276134061706,0.0012779353310502731,0.0029201667043444257
0.004790305072873755,0.002673111057324957,0.012862542886741884,0.008456657299169572,0.04570178414636722,0.0034542626109195355,0.010584078252537446,0.001005810625590408,0.09133957844070745,0.001574220197149323,0.009174310981890338,0.3849816459090168,0.1029806970137267,0.010137268173521945,0.0035993026499802293,0.0050947161479480575,0.08953033747731687,0.001045382144165065,0.004251540746592657,0.0026975607507771504,0.1361810433093204,0.0035500561671531856,0.0026403599462355323,0.0009500937622703772,0.1440916401567219,0.00011377264906230188,0.001996156327654967,0.0006643248183391115,0.13220564636496102,0.0025846144618022417,0.0018914339638056745,0.0029201667043444257
0.005379610672681023,0.005246177663222447,0.010624209553408641,0.004514720962426196,0.04951026615856455,0.0015474524682000763,0.0049281284802661215,0.0002655985722953369,0.086818275862069,0.00470053602920403,0.00408349988939989,0.3849816459090168,0.06797449433655196,0.00750966113421192,0.004981265785341554,0.002710487539628726,0.04168969465285178,0.0018967247170623665,0.002226581582598212,0.0013429183795420465,0.08136863672071716,0.005647972833820042,0.002282504253523991,0.00031523450685609183,0.11640301302862543,0.0016350643764101859,0.001996156327654967,0.00015047045167939336,0.10887527088790055,0.004390045714345454,0.0006644366982948719,0.0029201667043444257
0.005968916272488291,0.008676791206779614,0.010624209553408641,0.0032008509115861593,0.041050459633324744,0.00027645606659922484,0.0049281284802661215,0.002172239022438328,0.06818785430277603,0.003137572125577849,0.00408349988939989,0.3849816459090168,0.06499083681650666,0.0066338645968234,0.0005465867561038972,0.00350516464631557,0.06993844026852829,0.001045382144165065,0.006478675105154849,0.0013429183795420465,0.11696642497385344,0.0025008374171532856,0.002282504253523991,0.00031523450685609183,0.06102584125294962,0.0031563561037580698,0.0036744558794397975,0.0011781791849988295,0.12785181171430224,0.004390045714345454,0.0006644366982948719,0.0029201667043444257
0.005968916272488291,0.00953433814443929,0.0044761111111111,0.0018866546765229288,0.045701784146367344,0.002901350477721191,0.0007292254503401244,0.0034434904380955425,0.06945482758620686,0.001574220197149323,0.002545405546245364,0.13742482843528683,0.08072895509890277,0.0066338645968234,0.0035993026499802293,0.00126329257032305,0.07791186490475328,0.004451175148054676,0.00020162241860376636,0.0020202395651595984,0.11696642497385344,0.0014516186671533853,0.002282504253523991,0.00031523450685609183,0.07741704694598131,0.002395710240084128,0.002835306103547382,0.0011781791849988295,0.08119096809603885,0.004390045714345454,0.0006644366982948719,0.0029201667043444257
0.0061352077410440084,0.002673111057324957,0.009517457113257985,0.004683347946123643,0.035119180610620616,0.007350153423642459,0.006385175222611449,0.008528338318495835,0.086818275862069,0.006241375370586272,0.006099386151363828,0.13518146000532452,0.06797449433655196,0.010884022995246405,0.0022173395146189044,0.003647521178642338,0.12142403602221681,0.001045382144165065,0.004453163165196547,0.0013429183795420465,0.08136863672071716,0.0014516186671533853,0.002998215638947073,0.0006326641345632346,0.07741704694598131,0.0016350643764101859,0.001996156327654967,0.002506828821676906,0.07434505374598267,0.00529276134061706,0.0006644366982948719,0.001998433076022708
0.004790305072873755,0.002673111057324957,0.02518356822436914,0.00862528428286702,0.04273614463501528,0.009892461767162379,0.006385175222611449,0.012341934783238914,0.04757007673170665,0.007022857322399405,0.0010073112030908394,0.1306947231453998,0.06499083681650666,0.011759819532634925,0.008839737924910773,0.008415978395280958,0.10365471028515517,0.001045382144165065,0.00870580946371704,0.0026975607507771504,0.12600744445802714,0.0010489583333334284,0.002282504253523991,0.0022157361645321547,0.08998789382540852,0.0016350643764101859,0.0036744558794397975,0.0011781791849988295,0.0967446444115549,0.006195476966888666,0.0018914339638056745,0.0010766994477009902
0.004790305072873755,0.002673111057324957,0.0229452348910359,0.013881090670450433,0.041050459633324744,0.0124347701106823,0.009213150108747268,0.014884437614553343,0.086818275862069,0.00858582122602563,0.01373623471799105,0.12845121548820293,0.08398590837421817,0.002125187912783734,0.004693162340507336,0.007621301288594158,0.0858852895409783,0.0017028965019448058,0.002226581582598212,0.0026975607507771504,0.11696642497385344,0.0014516186671533853,0.0026403599462355323,0.001582914963401266,0.10510559159356059,0.00011377264906230188,0.002835306103547382,0.0006643248183391115,0.1054523137128725,0.0025846144618022417,0.0018914339638056745,0.001998433076022708
0.004790305072873755,0.002673111057324957,0.01623190155770245,0.013881090670450433,0.045701784146367344,0.013070268311482724,0.01769847892548902,0.014248890797839035,0.056611992233810714,0.007804339274212539,0.016282272192127543,0.12957283008956694,0.06499083681650666,0.00650460545401507,0.006075125475868737,0.0084161756835398,0.11162813492138014,0.0008513425728973484,0.006478675105154849,0.003374713824906638,0.11696642497385344,0.0014516186671533853,0.002282504253523991,0.0028484002990953545,0.11640301302862543,0.0008744185127362439,0.001996156327654967,0.00015047045167939336,0.07776801092101077,0.0007787349889877298,0.0018914339638056745,0.0010766994477009902
0.005968916272488291,0.006103724600882123,0.0229452348910359,0.013224155645030378,0.041050459633324744,0.0124347701106823,0.01769847892548902,0.01297748159995322,0.09133957844070745,0.006241375370586272,0.008644791697609192,0.12957283008956694,0.11247826108440272,0.010008009030713519,0.0005465867561038972,0.007621301288594158,0.06993844026852829,0.0006573030016296319,0.004251540746592657,0.0026975607507771504,0.044638269100462244,0.0010489583333334284,0.0026403599462355323,0.0022157361645321547,0.07487019605725642,0.0007608347032627654,0.001996156327654967,0.0006643248183391115,0.13655948101561977,0.0009027156262716061,0.0006644366982948719,0.0010766994477009902
0.0047071593385958855,0.008676791206779614,0.013994123779924717,0.007968349257446964,0.035119180610620616,0.007985809394601993,0.005656651851438785,0.00979958973415305,0.07072180086963767,0.007022857322399405,0.0035533486772273333,0.1346206527046426,0.048979422778840466,0.010008009030713519,0.006075125475868737,0.0020581669652687375,0.0858852895409783,0.0006573030016296319,0.004654785583800436,0.0006771530741294876,0.1531305029105489,0.0006462979995134714,0.002998215638947073,0.0028484002990953545,0.10510559159356059,0.0008744185127362439,0.001996156327654967,0.002506828821676906,0.07776801092101077,0.008001356439703178,0.0006644366982948719,0.0029201667043444257
0.004790305072873755,0.007819244269119938,0.005041901557702517,0.0013140331429516336,0.05035310865940969,0.001630196305961161,0.007756103366401784,0.0028077858391526347,0.06493386983515483,0.0031373781131766765,0.00408349988939989,0.1402292826204002,0.07123144761186732,0.0031302435929804885,0.0027642693598824196,0.00350516464631557,0.10547718674976686,0.0006573030016296319,0.006881919942362504,0.000688540842846379,0.11696642497385344,0.0037934334161801126,0.002282504253523991,0.00031523450685609183,0.0887144683810461,0.0031563561037580698,0.0036744558794397975,0.005164457948468228,0.1054523137128725,0.013418098417604114,0.0012779353310502731,0.0047640916241598824
0.004790305072873755,0.006103724600882123,0.012862542886741884,0.005828591013266306,0.03131069859842329,0.00027645606659922484,0.010584078252537446,0.0012712514156572145,0.063666896551724,0.006263499932830211,0.009174310981890338,0.3849816459090168,0.08547770884242051,0.008385675098744905,0.004981265785341554,0.006684267649580545,0.08953033747731687,0.001045382144165065,0.009109054300924574,0.002720336288211008,0.10001696537262465,0.0037934334161801126,0.004923519701235549,0.0015808769091177996,0.13152079327729463,0.003917190807020836,0.0036744558794397975,0.006493107585146305,0.08119096809603885,0.008904072065974784,0.0006644366982948719,0.0047640916241598824
0.004790305072873755,0.00696148443500103,0.015100320664519742,0.009113592324589592,0.041050459633324744,0.0034542626109195355,0.016240028024809082,0.004819407090333521,0.06818785430277603,0.003919054077390939,0.014266385930163605,0.9988782461714015,0.1029806970137267,0.011013282138054784,0.0035993026499802293,0.009863370652845566,0.05763654392530173,0.0023604108597245466,0.006881919942362504,0.0006771530741294876,0.09945067568906503,0.0035500561671531856,0.002998215638947073,0.001582914963401266,0.11767643847298787,0.002395710240084128,0.001996156327654967,0.0031713185667335293,0.13655948101561977,0.008001356439703178,0.0006644366982948719,0.0047640916241598824
0.004790305072873755,0.007819244269119938,0.024051987331186433,0.013712789870976107,0.041050459633324744,0.007267567356040342,0.013412053138673264,0.006090500723762135,0.09133957844070745,0.011734649645126577,0.014266385930163605,0.9955132631400753,0.132965274569418,0.02502711387199304,0.009127841369745069,0.010658047759532364,0.08953033747731687,0.0023604108597245466,0.004654785583800436,0.0020202395651595984,0.1531305029105489,0.006697191583820058,0.0026403599462355323,0.001582914963401266,0.1440916401567219,0.0031563561037580698,0.002835306103547382,0.002506828821676906,0.14340539536567587,0.004390045714345454,0.0012779353310502731,0.003842129164252154
0.005968916272488291,0.004388630725562771,0.030765876220075268,0.013712789870976107,0.041050459633324744,0.007267567356040342,0.007756103366401784,0.005454953907047828,0.04757007673170665,0.010952973680912357,0.011720348456026972,0.9966348777414392,0.07123144761186732,0.02239972425982743,0.010509804505106394,0.009863370652845566,0.09568128564893018,0.0008513425728973484,0.004251540746592657,0.0026975607507771504,0.11696642497385344,0.007746410333820074,0.002998215638947073,0.0022157361645321547,0.08998789382540852,0.0031563561037580698,0.004832166330433403,0.0011781791849988295,0.08896780625379688,0.004390045714345454,0.0032196729919016674,0.0047640916241598824
0.004790305072873755,0.007819244269119938,0.010624209553408641,0.010427625467541226,0.035119180610620616,0.005360914983479957,0.0007292254503401244,0.00164135744230475,0.07072180086963767,0.003919054077390939,0.009174310981890338,0.3849816459090168,0.08398590837421817,0.011889078675443305,0.004981265785341554,0.005889393254634901,0.06993844026852829,0.0008513425728973484,0.004453163165196547,1.1387768716928741e-05,0.14465577310993463,0.007746410333820074,0.00528137539394709,0.001582914963401266,0.10510559159356059,0.0031563561037580698,0.002835306103547382,0.0011781791849988295,0.08119096809603885,0.001805655362678862,0.002555553477853671,0.003842129164252154
0.003279110936147785,0.002673111057324957,0.0028035682243691498,0.003285001311323322,0.0685524493216055,0.0034542626109195355,0.002828676965303123,0.00407919503703845,0.046303103448276026,0.0015744142095504953,0.006628905435645113,0.5726384133905034,0.06499083681650666,0.00663364716967913,0.003311199205145935,0.00350516464631557,0.07176091673314001,0.003599621219007172,0.01761324134603785,0.0026975607507771504,0.11696642497385344,0.008795368667153386,0.007564535148947107,0.001582914963401266,0.12459861587514125,0.0031563561037580698,0.0036744558794397975,0.0021437747601316046,0.08119096809603885,0.0010266962635554822,0.0018914339638056745,0.003842129164252154
0.005968916272488291,0.00257285370943826,0.005041901557702517,0.005340282971543697,0.02285089207318361,0.001630196305961161,0.009213150108747268,0.01170638796652457,0.0752427586206897,0.00468947374808206,0.0035533486772273333,0.1346206527046426,0.06499083681650666,0.006131010616008473,0.0022173395146189044,0.003647718466901225,0.08770781350914758,0.007856968151944288,0.015386106987475657,0.0026975607507771504,0.11696642497385344,0.007746410333820074,0.0026403599462355323,0.0009500937622703772,0.07741704694598131,0.003917190807020836,0.004832166330433403,0.004801403886923,0.17886644365115326,0.005540722615184912,0.0012779353310502731,0.003842129164252154
0.005379610672681023,0.002673111057324957,0.03413579044659134,0.012567220619610324,0.041050459633324744,0.006714655222842033,0.020526453811624837,0.017426782663639204,0.06818785430277603,0.016401416793761267,0.01373623471799105,0.1312555304460818,0.06797449433655196,0.002125187912783734,0.010221701060272174,0.009210852790226601,0.08953033747731687,0.00955965329773889,0.015386106987475657,0.0020202395651595984,0.09040965620489116,0.007746410333820074,0.00563857558518246,0.0009500937622703772,0.09691002998730334,0.002395710240084128,0.001996156327654967,0.002808099578470716,0.1210058973642462,0.00373506725250605,0.0018914339638056745,0.0029201667043444257
0.004790305072873755,0.002673111057324957,0.03413579044659134,0.013881090670450433,0.04189330213417001,0.013705766512283151,0.006385175222611605,0.017426782663639204,0.09133957844070745,0.010930655106267246,0.002545405546245364,0.13293809157536224,0.06499083681650666,0.00650460545401507,0.011603664195633575,0.0028528440719555377,0.12142403602221681,0.007856968151944288,0.01761324134603785,0.0013429183795420465,0.08080234703715769,0.0025008374171532856,0.0026403599462355323,0.0006326641345632346,0.1604828458497536,0.0031563561037580698,0.006509761982987024,0.001479449941792493,0.08554484907876883,0.0019294118898271879,0.0018914339638056745,0.0029201667043444257
0.005968916272488291,0.002673111057324957,0.011755790446591351,0.006654316114495331,0.041050459633324744,0.010527959967962804,0.0049281284802661215,0.007892633719552962,0.057878965517241344,0.002344639867840444,0.0010073112030908394,0.13742496766252138,0.08072895509890277,0.0038767809875607747,0.004693162340507336,0.0011211333262551254,0.05763654392530173,0.005302517720951978,0.004654785583800436,0.003397489362340458,0.11696642497385344,0.004842652166180128,0.002282504253523991,0.003478869312807468,0.08998789382540852,0.006199317237631568,0.0036744558794397975,0.0018425040033378678,0.10887527088790055,0.006195476966888666,0.0006644366982948719,0.0056858252524816
0.00605206200676615,0.002673111057324957,0.003910320664519684,0.0005727846256828919,0.041050459633324744,0.006079157022041607,0.006385175222611449,0.0034434904380955425,0.05209103448275868,0.0007814819518131336,0.0010073112030908394,0.1396683360924837,0.08547770884242051,0.004881836667757722,0.007745878234383744,0.00350516464631557,0.10547718674976686,0.002748067289959668,0.00910850152496084,0.005429284807705087,0.053679288584636255,0.002744214666180097,0.002998215638947073,0.003478869312807468,0.10383216614919816,0.006199317237631568,0.002835306103547382,0.005164457948468228,0.08554484907876883,0.008904072065974784,0.0019420548450982695,0.008451483800618774
0.005968916272488291,0.00953433814443929,0.005041901557702517,0.0032006878194745627,0.03808482012197268,0.0035370064486806552,0.012041124994883086,0.0015366922057240208,0.11702455949032729,0.0007814819518131336,0.005090811092490588,0.3849816459090168,0.06648266557652932,0.0008757965373885203,0.0022173395146189044,0.007479142044526233,0.07358339319775174,0.0017028965019448058,0.02024251498987986,0.0074607440300934755,0.10001696537262465,0.005891610499513441,0.01091995097912955,0.0060098399841956454,0.06794801865510303,0.006199317237631568,0.001996156327654967,0.00848641189359859,0.07434505374598267,0.012515382791332508,0.005775543654002214,0.010294951057262209
0.005968916272488291,0.006103724600882123,0.012862542886741884,0.009113592324589592,0.05628393388622316,0.0012709964016008515,0.007756103366401784,0.0012712514156572145,0.09387283535239627,0.003137572125577849,0.009174310981890338,0.9983174388707197,0.08696950931062285,0.013640671750220393,0.007745878234383744,0.009863370652845566,0.05763654392530173,0.0023604108597245466,0.013562217466121244,0.009492539475458067,0.11696642497385344,0.004842652166180128,0.00563857558518246,0.008540810655583823,0.10510559159356059,0.010763570098852867,0.0036744558794397975,0.01180836583872895,0.05008370812914895,0.0007787349889877298,0.005775543654002214,0.012138418313905747
0.005379610672681023,0.002673111057324957,0.024051987331186433,0.012398593635912877,0.03808482012197268,0.0034542626109195355,0.013412053138673264,0.0029126088579619646,0.07072180086963767,0.007045175897044474,0.009174310981890338,0.9943913700842424,0.06499083681650666,0.02239972425982743,0.013274416954148584,0.012247401972905966,0.10183223382054349,0.0018967247170623665,0.013562217466121244,0.010846845623717042,0.12600744445802714,0.004842652166180128,0.0026403599462355323,0.009173474790147022,0.07741704694598131,0.012285239505378397,0.006509761982987024,0.010479716202050874,0.11665206271358741,0.0007787349889877298,0.0032196729919016674,0.012138418313905747
0.0061352077410440084,0.002673111057324957,0.021813653997853066,0.012398593635912877,0.035119180610620616,0.007267567356040342,0.014140576509846084,0.0035483134569048373,0.04757007673170665,0.009389815764885004,0.014266385930163605,0.9932697554828784,0.07448840088718268,0.02327552079721595,0.013274416954148584,0.01383715076279734,0.0858852895409783,0.00870831072484159,0.006881919942362504,0.008137897104222963,0.10001696537262465,0.002744214666180097,0.002998215638947073,0.006642504118758845,0.0887144683810461,0.008481632507830999,0.006509761982987024,0.005828782766807267,0.09332164090445567,0.007098416703295922,0.0044976083229519405,0.012138418313905747
0.005968916272488291,0.006103724600882123,0.024051987331186433,0.012398593635912877,0.04189330213417001,0.010445373900360688,0.010584078252537446,0.005454953907047828,0.04757007673170665,0.009389815764885004,0.014266385930163605,0.9955132631400753,0.06797449433655196,0.02327552079721595,0.009127841369745069,0.012247401972905966,0.07358339319775174,0.00955965329773889,0.002226581582598212,0.004074642436469909,0.09097594588845064,0.0014516186671533853,0.008278935531417847,0.005377175849632446,0.0887144683810461,0.006960151940894292,0.0036744558794397975,0.0038358083117901523,0.13220564636496102,0.004390045714345454,0.0032196729919016674,0.010294951057262209
0.00605206200676615,0.005246177663222447,0.012862542886741884,0.007799722273749518,0.045701784146367344,0.0059964131842803825,0.007756103366401784,0.0035483134569048373,0.07072180086963767,0.003919054077390939,0.014266385930163605,0.9988783853986362,0.06499083681650666,0.010137268173521945,0.0063635720098626485,0.009863370652845566,0.12142403602221681,0.011262338443533589,0.00020162241860376636,0.002720336288211008,0.10001696537262465,0.0037934334161801126,0.00563857558518246,0.004744354648501556,0.10510559159356059,0.008481632507830999,0.0036744558794397975,0.0038358083117901523,0.14340539536567587,0.00980678769224639,0.0019420548450982695,0.008451483800618774
0.0033622566704256435,0.002673111057324957,0.012862542886741884,0.007142787248329463,0.041050459633324744,0.0021831084391595755,0.011312601623710266,0.004183860273619179,0.07072180086963767,0.002355896161363586,0.006628905435645113,0.9983174388707197,0.06499083681650666,0.01626849621667464,0.0063635720098626485,0.008273819151213077,0.1275749841938301,0.00870831072484159,0.004251540746592657,0.0047519636220874975,0.1531305029105489,0.006940568832846754,0.0026403599462355323,0.0012654853356940884,0.07741704694598131,0.006960151940894292,0.0036744558794397975,0.0031713185667335293,0.08896780625379688,0.008001356439703178,0.0006644366982948719,0.0056858252524816
0.004790305072873755,0.002673111057324957,0.012862542886741884,0.007142787248329463,0.030467856097578145,0.0028186066399600363,0.013412755217840569,0.0022770620412476228,0.07072180086963767,0.0054820179810171205,0.009174310981890338,1.0,0.08398590837421817,0.015392482252141753,0.004981265785341554,0.007479142044526233,0.07176091673314001,0.00615386029384928,0.004251540746592657,0.003397489362340458,0.14465577310993463,0.0006462979995134714,0.004923519701235549,0.004111533447370668,0.11640301302862543,0.0054386713739575845,0.0036744558794397975,0.002506828821676906,0.13655948101561977,0.006195476966888666,0.0006644366982948719,0.006607558880803318
0.004790305072873755,0.007819244269119938,0.008385876220075398,0.005171655987846251,0.07151786193501224,0.007903223326999876,0.017697776846321872,0.0025423450490858635,0.09133957844070745,1.1256293523141928e-05,0.009174310981890338,0.3849816459090168,0.06797449433655196,0.0066338645968234,0.0022173395146189044,0.0058895905428937015,0.06993844026852829,0.004451175148054676,0.004251540746592657,0.0020430151025934186,0.17177883156245594,0.0014516186671533853,0.0026403599462355323,0.002846205178244269,0.0887144683810461,0.006199317237631568,0.0036744558794397975,0.0011781791849988295,0.1521131573311359,0.004390045714345454,0.0006644366982948719,0.006607558880803318
0.0047071593385958855,0.003530870891443864,0.003910320664519684,0.0018866546765229288,0.03808482012197268,0.004172504649481151,0.027553331727686654,0.0034434904380955425,0.06818785430277603,0.001574220197149323,0.0010073112030908394,0.3849816459090168,0.12495959584240522,0.0031300261658363145,0.0022173395146189044,0.002710487539628726,0.05763654392530173,0.00615386029384928,0.00020162241860376636,0.0013656939169758293,0.17234512124601553,0.0035500561671531856,0.002998215638947073,0.0015808769091177996,0.10510559159356059,0.003917190807020836,0.001996156327654967,0.0011781791849988295,0.10109847906221371,0.0025846144618022417,0.0019420548450982695,0.006607558880803318
0.008658721608828775,0.0007570766933137488,0.00727967933548025,0.001398346634800357,0.030467856097578145,0.0019066523725603508,0.01906870499011205,0.0021723968046668935,0.057878965517241344,0.003137572125577849,0.006628905435645113,0.13910752879180177,0.1029806970137267,0.0031300261658363145,0.0027642693598824196,0.0007948743949456875,0.12142403602221681,0.001045382144165065,0.004251540746592657,0.0013656939169758293,0.10849169517323905,0.0025008374171532856,0.0026403599462355323,0.0015808769091177996,0.13024736783293223,0.0016350643764101859,0.0036744558794397975,0.0018425040033378678,0.05008370812914895,0.004390045714345454,0.0006644366982948719,0.0047640916241598824
0.004790305072873755,0.004388630725562771,0.011755790446591351,0.005340282971543697,0.05712700328501363,0.004172504649481151,0.020526453811624837,0.005350288670467064,0.06818785430277603,1.1256293523141928e-05,0.014266385930163605,0.1368640211346049,0.06499083681650666,0.002125187912783734,0.004693162340507336,0.0011211333262551254,0.08953033747731687,0.0015088569306770893,0.00020162241860376636,0.0013656939169758293,0.10849169517323905,0.002744214666180097,0.0026403599462355323,0.001582914963401266,0.13279421872165703,0.00011377264906230188,0.0036744558794397975,0.002506828821676906,0.08119096809603885,0.006195476966888666,0.0018914339638056745,0.0029201667043444257
0.005968916272488291,0.0043884178291035405,0.009518012668813617,0.005997217996963752,0.06093548529721096,0.00254230834351992,0.04735133237605545,0.0057203946971146,0.11449130257863846,0.002333383574317345,0.01373623471799105,0.13069458391816538,0.06648266557652932,0.009132212493324998,0.0022173395146189044,0.0028528440719555377,0.07358339319775174,0.0040630960055192435,0.004654785583800436,1.1387768716928741e-05,0.10849169517323905,0.002744214666180097,0.002998215638947073,0.0009500937622703772,0.08998789382540852,0.0008744185127362439,0.001996156327654967,0.002506828821676906,0.1054523137128725,0.006195476966888666,0.0006644366982948719,0.001998433076022708
0.005379610672681023,0.002673111057324957,0.011755790446591351,0.008625284282866984,0.041050459633324744,0.007626767260400722,0.01769847892548902,0.009163885135210176,0.05914593880067197,0.012493619009893427,0.02137308328461827,0.12845121548820293,0.08696950931062285,0.002125187912783734,0.0060754685650283545,0.006826426893648514,0.10183223382054349,0.0040630960055192435,0.002428204001202101,0.001354306148258938,0.10849169517323905,0.002097916666666741,0.0026403599462355323,0.0022157361645321547,0.09126131926977095,0.0015214805669367074,0.001996156327654967,0.002506828821676906,0.1122982280629286,0.00529276134061706,0.0012779353310502731,0.0029201667043444257
0.005968916272488291,0.002673111057324957,0.029659679335480242,0.013224155645030378,0.041050459633324744,0.005719957117681227,0.01769847892548902,0.00979958973415305,0.07072180086963767,0.007022857322399405,0.006099386151363828,0.12789026896028646,0.11071333461185204,0.00650460545401507,0.007457431700389755,0.0084161756835398,0.08953033747731687,0.005766203863614251,0.00020162241860376636,0.0013429183795420465,0.10849169517323905,0.0006462979995134714,0.002282504253523991,0.0022157361645321547,0.1717801848043012,0.002929188484811113,0.0036744558794397975,0.002506828821676906,0.1210058973642462,0.004390045714345454,0.0006644366982948719,0.0009217336283217685
0.005968916272488291,0.0017153067717785833,0.011755790446591351,0.005340282971543697,0.05331852127281642,0.009256963566361952,0.010584078252537446,0.00725708690283862,0.1273337931034482,0.0015517076101031254,0.008644791697609192,0.1306947231453998,0.08547770884242051,0.010884022995246405,0.003311199205145935,0.005237072680274826,0.08953033747731687,0.003211753432621895,0.004654785583800436,1.1387768716928741e-05,0.11696642497385344,0.002744214666180097,0.002282504253523991,0.0022157361645321547,0.1440916401567219,0.00011377264906230188,0.001996156327654967,0.002506828821676906,0.17886648998322446,0.006195476966888666,0.0018914339638056745,0.0010766994477009902
0.005968916272488291,0.0007570766933137488,0.01623190155770245,0.010596252451238672,0.02581653158453567,0.0035368486785216867,0.005656651851438785,0.0034434904380955425,0.09133957844070745,0.002355896161363586,0.005091443020381859,0.1306947231453998,0.07272324808006966,0.004752577524949295,0.0019288929806249159,0.003647718466901225,0.11162813492138011,0.0015088569306770893,0.002428204001202101,0.0013429183795420465,0.08080234703715769,0.0037934334161801126,0.002282504253523991,0.0028484002990953545,0.0887144683810461,0.00011377264906230188,0.001996156327654967,0.0011781791849988295,0.1710896518254664,0.006195476966888666,0.0018914339638056745,0.0010766994477009902
0.004790305072873755,0.002472596361551562,0.01623190155770245,0.007968186165335404,0.019885252561831546,0.006079157022041607,0.006385175222611449,0.0034434904380955425,0.09387283535239627,0.002333383574317345,0.006099386151363828,0.1329379523481277,0.11722704311974078,0.00825619852879211,0.004693162340507336,0.0028528440719555377,0.12142403602221681,0.0015088569306770893,0.00020162241860376636,0.0013429183795420465,0.09040965620489101,0.002744214666180097,0.0026403599462355323,0.0022157361645321547,0.13279421872165703,0.0007608347032627654,0.001996156327654967,0.0011781791849988295,0.08896780625379688,0.004390045714345454,0.0006644366982948719,0.0009217336283217685
0.004790305072873755,0.005246177663222447,0.0028035682243691498,0.00271221668564043,0.041050459633324744,0.004808002850281647,0.006385175222611449,0.002172239022438328,0.09260620689655186,0.006241375370586272,0.006099386151363828,0.1346206527046426,0.06499083681650666,0.0038767809875607747,0.0019288929806249159,0.003647718466901225,0.05763654392530173,0.0006573030016296319,0.00020162241860376636,0.0020202395651595984,0.11696642497385344,0.0014516186671533853,0.002282504253523991,0.0022157361645321547,0.10383216614919816,0.00011377264906230188,0.001996156327654967,0.0011781791849988295,0.06563738444466514,0.004390045714345454,0.0018914339638056745,0.0009217336283217685
0.004790305072873755,0.006103724600882123,0.0005652348910357831,0.0007414116093803385,0.02581653158453567,0.002265852276920695,0.006385175222611449,0.0028077858391526347,0.0752427586206897,0.001574220197149323,0.0010073112030908394,0.13742482843528683,0.0617338835411913,0.0017518105019214076,0.0013819631353614008,0.0020579696770098503,0.07358339319775174,0.0006573030016296319,0.00020162241860376636,0.0020202395651595984,0.11696642497385344,0.0006462979995134714,0.0026403599462355323,0.0034810644336585542,0.10383216614919816,0.0007608347032627654,0.001996156327654967,0.0011781791849988295,0.08119096809603885,0.004390045714345454,0.0006644366982948719,0.0009217336283217685
0.005968916272488291,0.002673111057324957,0.008385876220075398,0.0013140331429516336,0.05035310865940969,0.001630196305961161,0.0049281284802661215,0.0015366922057240208,0.07072180086963767,1.1256293523141928e-05,0.00408349988939989,0.14135089722176405,0.06499083681650666,0.001378433091059081,0.0005465867561038972,0.0019158104329419256,0.07791186490475328,0.0008513425728973484,0.004251540746592657,0.0006771530741294876,0.1531305029105489,0.0014516186671533853,0.002282504253523991,0.0009500937622703772,0.09563660454294091,0.00011377264906230188,0.002835306103547382,0.0011781791849988295,0.08119096809603885,0.004390045714345454,0.0012779353310502731,0.001998433076022708
0.0061352077410440084,0.002673111057324957,0.008385876220075398,0.005171655987846251,0.041050459633324744,0.0006354982008004257,0.010584078252537446,0.0012712514156572145,0.07072180086963767,0.0007814819518131336,0.009174310981890338,0.3849816459090168,0.06797449433655196,0.00663364716967913,0.0005465867561038972,0.0050947161479480575,0.10183223382054349,0.001045382144165065,0.004251540746592657,0.0013429183795420465,0.11696642497385344,0.0014516186671533853,0.002998215638947073,0.001582914963401266,0.10510559159356059,0.0016350643764101859,0.002835306103547382,0.0011781791849988295,0.1210058973642462,0.0034873300880738476,0.0018914339638056745,0.0010766994477009902
0.0047071593385958855,0.002673111057324957,0.006148098442297541,0.0077995591816379575,0.04189330213417001,0.0015474524682000763,0.03038200869298962,0.006726205322705042,0.06945482758620686,0.007826851861258737,0.021902602568899417,0.3849816459090168,0.11871895675522429,0.008385675098744905,0.0013819631353614008,0.010658047759532364,0.0858852895409783,0.0008513425728973484,0.00870580946371704,0.0026975607507771504,0.08080234703715769,0.0014516186671533853,0.0026403599462355323,0.0034810644336585542,0.1440916401567219,0.0007608347032627654,0.001996156327654967,0.00015047045167939336,0.08119096809603885,0.0025846144618022417,0.0018914339638056745,0.0007667678089425469
0.004790305072873755,0.008676791206779614,0.024051987331186433,0.011741658610492858,0.041050459633324744,0.0021831084391595755,0.01906870499011205,0.007997456738362257,0.06945482758620686,0.009389815764885004,0.011720348456026972,0.3849816459090168,0.06499083681650666,0.012764875212831825,0.004981265785341554,0.009863370652845566,0.10183223382054349,0.0008513425728973484,0.004251540746592657,0.004051866899036125,0.10849169517323905,0.0014516186671533853,0.0026403599462355323,0.0022157361645321547,0.12332519043077883,0.00011377264906230188,0.001996156327654967,0.00015047045167939336,0.1054523137128725,0.004390045714345454,0.0006644366982948719,0.0009217336283217685
0.004790305072873755,0.007819244269119938,0.012862542886741884,0.005828591013266306,0.041050459633324744,0.0009945403350016266,0.005656651851438785,0.0035481556746763065,0.06818785430277603,0.002355896161363586,0.002545405546245364,0.5726384133905034,0.048979422778840466,0.0066338645968234,0.007745878234383744,0.0050947161479480575,0.07176091673314001,0.002748067289959668,0.002226581582598212,0.003374713824906638,0.17234512124601553,0.0035500561671531856,0.002998215638947073,0.001582914963401266,0.07741704694598131,0.0016350643764101859,0.001996156327654967,0.0006643248183391115,0.08119096809603885,0.004390045714345454,0.0012779353310502731,0.001998433076022708
0.0046240136043180155,0.007819244269119938,0.0022377777777777335,0.0012297196511029103,0.02581653158453567,0.002265852276920695,0.006385175222611449,0.0028077858391526347,0.09133957844070745,0.0015517076101031254,0.0010073112030908394,0.13798577496320333,0.08696950931062285,0.002125187912783734,0.0005465867561038972,0.0020581669652687375,0.10183223382054349,0.004451175148054676,0.002428204001202101,0.000688540842846379,0.10001696537262465,0.0025008374171532856,0.002998215638947073,0.0012654853356940884,0.13024736783293223,0.0031563561037580698,0.001996156327654967,0.0011781791849988295,0.1054523137128725,0.0034873300880738476,0.0012779353310502731,0.0029201667043444257
0.005968916272488291,0.004388630725562771,0.00727967933548025,0.007968349257446964,0.05035310865940969,0.004172504649481151,0.014869801960186052,0.006621540086124278,0.04757007673170665,0.002333383574317345,0.006099386151363828,0.13518146000532452,0.08547770884242051,0.002125187912783734,0.0019288929806249159,0.0028528440719555377,0.10547718674976686,0.002748067289959668,0.00020162241860376636,0.0013656939169758293,0.1175327146574129,0.0014516186671533853,0.002998215638947073,0.0022135410436810343,0.0887144683810461,0.0031563561037580698,0.001996156327654967,0.002506993748394491,0.08896780625379688,0.004390045714345454,0.0019420548450982695,0.003842129164252154
0.004790305072873755,0.006103724600882123,0.01846967933548031,0.011253350568770287,0.04189330213417001,0.007985809394601993,0.012041124994883086,0.008528338318495835,0.1286004215592926,0.004678023442157832,0.006099386151363828,0.13013377661748338,0.06797449433655196,0.0038767809875607747,0.0027642693598824196,0.003647718466901225,0.08953033747731687,0.0006573030016296319,0.004654785583800436,0.003397489362340458,0.09097594588845064,0.002744214666180097,0.002282504253523991,0.002846205178244269,0.15356066844760016,0.0031563561037580698,0.0036744558794397975,0.00450013313012919,0.1122982280629286,0.007098416703295922,0.0006644366982948719,0.0056858252524816
0.004790305072873755,0.002673111057324957,0.02518356822436914,0.012567220619610324,0.035119180610620616,0.0124347701106823,0.005656651851438785,0.011706387966524606,0.09387283535239627,0.007022857322399405,0.0035533486772273333,0.1318163377467638,0.1029806970137267,0.002125187912783734,0.011603664195633575,0.0015895515016324877,0.07358339319775174,0.0015088569306770893,0.004654785583800436,0.005429284807705087,0.11696642497385344,0.004842652166180128,0.002282504253523991,0.002846205178244269,0.11640301302862543,0.003917190807020836,0.006509761982987024,0.00450013313012919,0.08119096809603885,0.00980678769224639,0.0006644366982948719,0.0047640916241598824
0.004790305072873755,0.002673111057324957,0.01846967933548031,0.011910285594190306,0.041050459633324744,0.010527959967962804,0.0007292254503401244,0.010435294333095922,0.09387283535239627,0.0015517076101031254,0.0010073112030908394,0.13630321383392296,0.08696950931062285,0.0030009844501722545,0.006075125475868737,0.0007948743949456875,0.08953033747731687,0.00170268514579465,0.00020162241860376636,0.003397489362340458,0.10849169517323905,0.004842652166180128,0.002282504253523991,0.0012654853356940884,0.1881713904973329,0.0031563561037580698,0.0036744558794397975,0.0038358083117901523,0.1054523137128725,0.008904072065974784,0.0012779353310502731,0.003842129164252154
0.004790305072873755,0.002673111057324957,0.00727967933548025,0.0033691517110604847,0.04273614463501528,0.007985809394601993,0.0049281284802661215,0.008528338318495835,0.07072180086963767,0.0015517076101031254,0.0010073112030908394,0.13854658226388528,0.048979422778840466,0.0003731599837179595,0.0013819631353614008,0.0019158104329419256,0.06993844026852829,0.0008513425728973484,0.00870580946371704,0.0006771530741294876,0.11696642497385344,0.002744214666180097,0.002282504253523991,0.00031523450685609183,0.11075430231109301,0.0016350643764101859,0.0036744558794397975,0.0011781791849988295,0.1054523137128725,0.0034873300880738476,0.0018914339638056745,0.001998433076022708
0.005968916272488291,0.005246177663222447,0.00727967933548025,0.0020552816602203753,0.019885252561831546,0.004808160620440615,0.009213150108747268,0.005350288670467064,0.10870337154415562,0.001574220197149323,0.0010073112030908394,0.14135089722176405,0.0617338835411913,0.0048820540949018965,0.0022173395146189044,0.004299841753002414,0.09568128564893018,0.002748067289959668,0.00020162241860376636,0.001354306148258938,0.10001696537262465,0.0025008374171532856,0.002998215638947073,0.0009480557079869457,0.10510559159356059,0.0016350643764101859,0.001996156327654967,0.0011781791849988295,0.06999121909532391,0.004390045714345454,0.0012779353310502731,0.003842129164252154
0.005968916272488291,0.00696148443500103,0.010624209553408641,0.0018866546765229288,0.03131069859842329,0.0009945403350016266,0.009213150108747268,0.0028079436213812353,0.06945482758620686,0.0054820179810171205,0.00408349988939989,0.3849816459090168,0.08696950931062285,0.00663364716967913,0.007745878234383744,0.007478944756267389,0.08770781350914758,0.0008513425728973484,0.004654785583800436,0.0013656939169758293,0.044638269100462244,0.0025008374171532856,0.00563857558518246,0.0022135410436810343,0.11075430231109301,0.004678025510283601,0.001996156327654967,0.002506828821676906,0.05879147009460911,0.006195476966888666,0.0032196729919016674,0.0047640916241598824
0.004790305072873755,0.00953433814443929,0.012862542886741884,0.005828591013266306,0.041050459633324744,0.0021831084391595755,0.0049281284802661215,0.0029126088579619646,0.09133957844070745,0.003137572125577849,0.006628905435645113,0.9988783853986362,0.08398590837421817,0.011889078675443305,0.004981265785341554,0.012247401972905966,0.10365471028515517,0.003599621219007172,0.00020162241860376636,0.000688540842846379,0.11696642497385344,0.0006462979995134714,0.002282504253523991,0.0015808769091177996,0.049728502298401964,0.0031563561037580698,0.002835306103547382,0.0031713185667335293,0.08119096809603885,0.007098416703295922,0.0012779353310502731,0.0056858252524816
0.005968916272488291,0.0043884178291035405,0.017338098442297598,0.008456657299169536,0.02581653158453567,0.004089760811719996,0.013412053138673264,0.004819407090333521,0.07072180086963767,0.008608333813071871,0.014266385930163605,0.9960740704407572,0.1029806970137267,0.01626827878953032,0.007745878234383744,0.016221182082857784,0.08953033747731687,0.002748067289959668,0.004654785583800436,0.002720336288211008,0.1361810433093204,0.0006462979995134714,0.002282504253523991,0.003478869312807468,0.10510559159356059,0.004678025510283601,0.0036744558794397975,0.00450013313012919,0.09332164090445567,0.006195476966888666,0.002555553477853671,0.007529521340711046
0.007480110409214239,0.003530870891443864,0.017338098442297598,0.008456657299169572,0.02581653158453567,0.004089760811719996,0.016240028024809082,0.0035483134569048373,0.07072180086963767,0.010171491729099223,0.014266385930163605,0.9943913700842424,0.08398590837421817,0.018896103255984616,0.010509804505106394,0.01383715076279734,0.11345061138599183,0.0008513425728973484,0.00020162241860376636,0.002720336288211008,0.11696642497385344,0.0006462979995134714,0.002998215638947073,0.002846205178244269,0.11640301302862543,0.004678025510283601,0.006509761982987024,0.0038358083117901523,0.08119096809603885,0.008001356439703178,0.0006644366982948719,0.006607558880803318
0.005968916272488291,0.006103724600882123,0.010624209553408641,0.010427625467541226,0.05331852127281642,0.005360757213320848,0.010584078252537446,0.0035483134569048373,0.09133957844070745,0.010953167693313445,0.01681179147640883,0.9977564923428032,0.06499083681650666,0.020647696330761658,0.009127841369745069,0.014631827869484141,0.05763654392530173,0.002748067289959668,0.002428204001202101,0.0013656939169758293,0.1361810433093204,0.0025008374171532856,0.0026403599462355323,0.002846205178244269,0.07487019605725642,0.004678025510283601,0.0036744558794397975,0.002506993748394491,0.07776801092101077,0.00529276134061706,0.0006644366982948719,0.006607558880803318
0.005968916272488291,0.007819244269119938,0.003910320664519684,0.0032006878194745627,0.04189330213417001,0.0006354982008004257,0.0049281284802661215,0.0015366922057240208,0.07072180086963767,0.00470053602920403,0.014266385930163605,0.3849816459090168,0.06499083681650666,0.004881836667757722,0.0022173395146189044,0.010658047759532364,0.1275749841938301,0.0018967247170623665,0.00870580946371704,0.000688540842846379,0.10001696537262465,0.006697191583820058,0.0026403599462355323,0.0022135410436810343,0.1440916401567219,0.0031563561037580698,0.0036744558794397975,0.0011781791849988295,0.10887527088790055,0.001805655362678862,0.0006644366982948719,0.006607558880803318
0.005968916272488291,0.00953433814443929,0.0022377777777777335,0.004683347946123643,0.035119180610620616,0.004808160620440615,0.003557200336475787,0.00725708690283862,0.057878965517241344,0.0015517076101031254,0.0010073112030908394,0.3849816459090168,0.08696950931062285,0.002254229628447698,0.0022173395146189044,0.009068693546158765,0.06993844026852829,0.001045382144165065,0.006478675105154849,0.0013429183795420465,0.13561475362576061,0.007746410333820074,0.002998215638947073,0.0009480557079869457,0.07614362150161887,0.0031563561037580698,0.001996156327654967,0.0018425040033378678,0.08896780625379688,0.0016816747253949858,0.0012779353310502731,0.006607558880803318
0.005968916272488291,0.008676791206779614,0.0005652348910357831,0.005340282971543697,0.05035310865940969,0.004808160620440615,0.009213150108747268,0.007892791501781493,0.09839413793103452,0.002355896161363586,0.0010073112030908394,0.141911704522446,0.06499083681650666,0.005757850632290513,0.0022173395146189044,0.007478944756267389,0.08155686533753431,0.002748067289959668,0.004654785583800436,0.002720336288211008,0.10849169517323905,0.0025008374171532856,0.002282504253523991,0.002846205178244269,0.0887144683810461,0.004678025510283601,0.002835306103547382,0.0031713185667335293,0.10109847906221371,0.006195476966888666,0.0019420548450982695,0.0047640916241598824
0.005379610672681023,0.00696148443500103,0.009517457113257985,0.0033691517110604847,0.04189330213417001,0.006079157022041607,0.012041124994883086,0.009163885135210176,0.086818275862069,0.001574220197149323,0.002545405546245364,0.3849816459090168,0.07448840088718268,0.002254229628447698,0.0005465867561038972,0.006684267649580545,0.063787492096915,0.002748067289959668,0.002226581582598212,0.004074642436469909,0.10001696537262465,0.004842652166180128,0.002282504253523991,0.002846205178244269,0.07741704694598131,0.006199317237631568,0.006509761982987024,0.00450013313012919,0.08896780625379688,0.008001356439703178,0.0006644366982948719,0.007529521340711046
0.005379610672681023,0.008676791206779614,0.00727967933548025,0.0033691517110604847,0.035119180610620616,0.0035368486785216867,0.0049281284802661215,0.004714741853752757,0.06818785430277603,0.002355896161363586,0.00408349988939989,0.3849816459090168,0.045995765258795236,0.009261471636133424,0.0022173395146189044,0.006684267649580545,0.06993844026852829,0.001045382144165065,0.004654785583800436,0.004074642436469909,0.12600744445802714,0.004842652166180128,0.0026403599462355323,0.004111533447370668,0.13279421872165703,0.004678025510283601,0.006509761982987024,0.005828782766807267,0.07434505374598267,0.00980678769224639,0.0006644366982948719,0.006607558880803318
0.005968916272488291,0.006103724600882123,0.0005652348910357831,0.0020552816602203753,0.041050459633324744,0.002265852276920695,0.002828676965303123,0.00407919503703845,0.1376430267165691,0.00470053602920403,0.006628905435645113,0.3849816459090168,0.06797449433655196,0.00663364716967913,0.004981265785341554,0.011452724866219165,0.06993844026852829,0.001045382144165065,0.002428204001202101,0.002720336288211008,0.13504846394220085,0.004842652166180128,0.0026403599462355323,0.002846205178244269,0.13279421872165703,0.0054386713739575845,0.0036744558794397975,0.005164457948468228,0.17544353280819644,0.0116126671650609,0.0006644366982948719,0.006607558880803318
0.004790305072873755,0.006103724600882123,0.003910320664519684,0.0018866546765229288,0.035119180610620616,0.002265852276920695,0.002828676965303123,0.002172239022438328,0.04757007673170665,0.006263499932830211,0.006628905435645113,0.3849816459090168,0.09823191497838872,0.007509661134212017,0.0022173395146189044,0.012247401972905966,0.05581401995713248,0.002748067289959668,0.004654785583800436,0.004074642436469909,0.08193492640427662,0.001695256332846784,0.002998215638947073,0.003478869312807468,0.10510559159356059,0.004678025510283601,0.0036744558794397975,0.005828782766807267,0.11665206271358741,0.0116126671650609,0.0032196729919016674,0.006607558880803318
0.005968916272488291,0.006103724600882123,0.006148098442297541,0.003857785937006178,0.035119180610620616,0.002901350477721191,0.0007292254503401244,0.001005810625590408,0.05914593880067197,0.007045175897044474,0.006628905435645113,1.0,0.04748759401881785,0.012764875212831825,0.007745535145223974,0.009863370652845566,0.08953033747731687,0.002748067289959668,0.004654785583800436,0.0047519636220874975,0.11696642497385344,0.0014516186671533853,0.002282504253523991,0.004111533447370668,0.11640301302862543,0.006199317237631568,0.0036744558794397975,0.005828782766807267,0.10887527088790055,0.00980678769224639,0.0019420548450982695,0.007529521340711046
0.005968916272488291,0.007819244269119938,0.010624209553408641,0.004514720962426196,0.035119180610620616,0.0009945403350016266,0.0007292254503401244,0.001005810625590408,0.05209103448275868,0.0054820179810171205,0.00408349988939989,1.0,0.10596458086833434,0.012764875212831825,0.007745878234383744,0.012247401972905966,0.06993844026852829,0.002748067289959668,0.004654785583800436,0.004074642436469909,0.10001696537262465,0.0010489583333334284,0.002998215638947073,0.004744354648501556,0.12459861587514125,0.0054386713739575845,0.0036744558794397975,0.005164457948468228,0.06221442726963713,0.007098416703295922,0.0006644366982948719,0.008451483800618774
0.005379610672681023,0.008676791206779614,0.006148098442297541,0.004514720962426196,0.019885252561831546,0.00027645606659922484,0.0049281284802661215,0.0006357045989428725,0.09133957844070745,0.008608333813071871,0.009174310981890338,1.0,0.08547770884242051,0.012764875212831825,0.0063635720098626485,0.013042276367851652,0.063787492096915,0.002748067289959668,0.004654785583800436,0.004074642436469909,0.10001696537262465,0.0006462979995134714,0.0026403599462355323,0.004111533447370668,0.07741704694598131,0.003917190807020836,0.0036744558794397975,0.00450013313012919,0.1054523137128725,0.008001356439703178,0.0032196729919016674,0.008451483800618774
0.004790305072873755,0.007819244269119938,0.0022377777777777335,0.003857785937006178,0.041050459633324744,0.00027645606659922484,0.007756103366401784,0.0002655985722953369,0.057878965517241344,0.0062636939452313835,0.011720348456026972,0.3849816459090168,0.048979422778840466,0.008385675098744905,0.004981265785341554,0.012247401972905966,0.12142403602221681,0.001045382144165065,0.00020162241860376636,0.003397489362340458,0.044638269100462244,0.0006462979995134714,0.002282504253523991,0.0015808769091177996,0.033337296605370305,0.004678025510283601,0.0036744558794397975,0.00450013313012919,0.12442885453927419,0.00980678769224639,0.0012779353310502731,0.006607558880803318
0.008658721608828775,0.006103724600882123,0.012862542886741884,0.004514720962426196,0.02581653158453567,0.00027645606659922484,0.0049281284802661215,0.001005810625590408,0.08229697328343057,0.00470053602920403,0.006628905435645113,0.3849816459090168,0.048979422778840466,0.010137268173521945,0.004981265785341554,0.010658047759532364,0.06993844026852829,0.001045382144165065,0.004654785583800436,0.004074642436469909,0.06328713638921718,0.002744214666180097,0.0026403599462355323,0.002846205178244269,0.11640301302862543,0.003917190807020836,0.0036744558794397975,0.005164457948468228,0.07434505374598267,0.00980678769224639,0.0019420548450982695,0.0056858252524816
0.005968916272488291,0.005246177663222447,0.003910320664519684,0.0032008509115861593,0.035119180610620616,0.0009945403350016266,0.0007292254503401244,0.001005810625590408,0.07650938707653412,0.007826851861258737,0.014266385930163605,0.3849816459090168,0.06648266557652932,0.011013064710910465,0.004981265785341554,0.009863370652845566,0.063787492096915,0.001045382144165065,0.004251540746592657,0.003397489362340458,0.11696642497385344,0.0006462979995134714,0.004923519701235549,0.0022135410436810343,0.12459861587514125,0.0031563561037580698,0.00934506808653425,0.00450013313012919,0.07434505374598267,0.00980678769224639,0.0006644366982948719,0.0056858252524816
0.00605206200676615,0.003530870891443864,0.0022377777777777335,0.0012297196511029103,0.041050459633324744,0.002265852276920695,0.003557200336475787,0.0015366922057240208,0.06818785430277603,0.003919054077390939,0.006628905435645113,0.5737601672191018,0.048979422778840466,0.0031302435929804885,0.0035993026499802293,0.008273819151213077,0.07176091673314001,0.0018967247170623665,0.002226581582598212,0.003397489362340458,0.12600744445802714,0.0014516186671533853,0.00528137539394709,0.002846205178244269,0.0887144683810461,0.003917190807020836,0.0036744558794397975,0.0031713185667335293,0.07434505374598267,0.00529276134061706,0.0006644366982948719,0.006607558880803318
0.0047071593385958855,0.00696148443500103,0.0005652348910357831,0.0006570981175316152,0.026659374085380813,0.002265852276920695,0.0007292254503401244,0.0034434904380955425,0.05914593880067216,0.001574220197149323,0.0010073112030908394,0.14135089722176405,0.048979422778840466,0.004006040130369105,0.0022173395146189044,0.0058895905428937015,0.08953033747731687,0.002748067289959668,0.004654785583800436,0.002720336288211008,0.08080234703715769,0.0035500561671531856,0.002998215638947073,0.002846205178244269,0.18562445712809086,0.003917190807020836,0.001996156327654967,0.0038358083117901523,0.1054523137128725,0.004390045714345454,0.0006644366982948719,0.006607558880803318
0.008069416009021507,0.006103724600882123,0.005041901557702517,0.0033691517110604847,0.04273614463501528,0.0035368486785216867,0.003557200336475787,0.005350288670467064,0.09133957844070745,0.001562963903626224,0.00408349988939989,0.13966847531971824,0.048979422778840466,0.0003731599837179595,0.0022173395146189044,0.002710487539628726,0.06993844026852829,0.002748067289959668,0.004654785583800436,0.002720336288211008,0.07232815587339089,0.002097916666666741,0.002282504253523991,0.002846205178244269,0.10510559159356059,0.0031563561037580698,0.002835306103547382,0.0038358083117901523,0.1054523137128725,0.006195476966888666,0.0006644366982948719,0.006607558880803318
0.004790305072873755,0.008676791206779614,0.009517457113257985,0.004683347946123643,0.030467856097578145,0.005443658821241111,0.006385175222611449,0.004714741853752757,0.05209103448275868,0.0007814819518131336,0.006099386151363828,0.13798577496320333,0.07448840088718268,0.0003731599837179595,0.0013819631353614008,0.0011211333262551254,0.06993844026852829,0.0006573030016296319,0.002428204001202101,0.002720336288211008,0.10001696537262465,0.0037934334161801126,0.002282504253523991,0.002846205178244269,0.10510559159356059,0.0031563561037580698,0.0036744558794397975,0.005164457948468228,0.06221442726963713,0.008904072065974784,0.0006644366982948719,0.0056858252524816
0.0046240136043180155,0.008676791206779614,0.01623190155770245,0.004683347946123643,0.0486674236577194,0.007350153423642459,0.005656651851438785,0.007892791501781493,0.09133957844070745,0.001574220197149323,0.00408349988939989,0.1368640211346049,0.08696950931062285,0.0038767809875607747,0.003311199205145935,0.002710487539628726,0.09568128564893018,0.0023604108597245466,0.006881919942362504,0.003397489362340458,0.10001696537262465,0.004842652166180128,0.0026403599462355323,0.0015808769091177996,0.08998789382540852,0.003917190807020836,0.0036744558794397975,0.005164457948468228,0.07434505374598267,0.008904072065974784,0.0006644366982948719,0.0047640916241598824
0.0061352077410440084,0.00953433814443929,0.009517457113257985,0.004683347946123643,0.04189330213417001,0.007350153423642459,0.002828676965303123,0.006621382303895747,0.06818785430277603,0.0015517076101031254,0.005091443020381859,0.1368640211346049,0.08547770884242051,0.002125187912783734,0.0005465867561038972,0.0011211333262551254,0.07973438887292257,0.0008513425728973484,0.004654785583800436,0.002720336288211008,0.0638539647096241,0.004842652166180128,0.0026403599462355323,0.00031523450685609183,0.11767643847298787,0.0016350643764101859,0.002835306103547382,0.00450013313012919,0.08119096809603885,0.008904072065974784,0.0006644366982948719,0.003842129164252154
0.00605206200676615,0.00953433814443929,0.00727967933548025,0.004683347946123643,0.02285089207318361,0.007350153423642459,0.006385175222611449,0.005350288670467064,0.057878965517241344,0.0015517076101031254,0.0010073112030908394,0.13742496766252138,0.06648266557652932,0.005628374062337815,0.0005465867561038972,0.002710487539628726,0.06993844026852829,0.001045382144165065,0.00020162241860376636,0.002720336288211008,0.08080234703715769,0.001695256332846784,0.002998215638947073,0.0015808769091177996,0.09126131926977095,0.0031563561037580698,0.0036744558794397975,0.0031713185667335293,0.13998243819064782,0.007098416703295922,0.0006644366982948719,0.0047640916241598824
0.007480110409214239,0.007819244269119938,0.0028035682243691498,0.0033691517110604847,0.045701784146367344,0.006079157022041607,0.003557200336475787,0.00407919503703845,0.06818785430277603,0.0007814819518131336,0.0010073112030908394,0.13854658226388528,0.0617338835411913,0.003503403576698545,0.0022173395146189044,0.002710487539628726,0.08953033747731687,0.0018967247170623665,0.004251540746592657,0.0013656939169758293,0.10001696537262465,0.0006462979995134714,0.002998215638947073,0.0015808769091177996,0.10255874070483574,0.0031563561037580698,0.002835306103547382,0.002506828821676906,0.08896780625379688,0.00529276134061706,0.0006644366982948719,0.0047640916241598824
0.005379610672681023,0.005246177663222447,0.0028035682243691498,0.001398346634800357,0.041050459633324744,0.004808160620440615,0.0007292254503401244,0.0034434904380955425,0.086818275862069,0.00470053602920403,0.00408349988939989,0.14079008992108213,0.04748759401881785,0.004006040130369105,0.0013819631353614008,0.004299841753002414,0.06993844026852829,0.0018967247170623665,0.004654785583800436,0.002720336288211008,0.10001696537262465,0.0010489583333334284,0.002998215638947073,0.0015808769091177996,0.09818345543166576,0.0031563561037580698,0.001996156327654967,0.0038358083117901523,0.11665206271358741,0.006195476966888666,0.0012779353310502731,0.0047640916241598824
0.005968916272488291,0.00696148443500103,0.003910320664519684,0.0032006878194745627,0.05035310865940969,0.00127115417175996,0.010584078252537446,0.0006357045989428725,0.06818785430277603,0.003919054077390939,0.014266385930163605,0.3849816459090168,0.05698512979767356,0.004006040130369105,0.0005465867561038972,0.007478944756267389,0.10547718674976686,0.0015088569306770893,0.00020162241860376636,0.0013656939169758293,0.10001696537262465,0.002744214666180097,0.002282504253523991,0.0015808769091177996,0.10510559159356059,0.0016350643764101859,0.0036744558794397975,0.0038358083117901523,0.12007501988861542,0.008001356439703178,0.0006644366982948719,0.0029201667043444257
0.004790305072873755,0.00696148443500103,0.010624209553408641,0.005828591013266306,0.05035310865940969,0.0015474524682000763,0.010584078252537446,0.002276904259019092,0.063666896551724,0.006263499932830211,0.00408349988939989,0.3849816459090168,0.06499083681650666,0.010137268173521945,0.004981265785341554,0.006684267649580545,0.12142403602221681,0.001045382144165065,0.002428204001202101,0.002720336288211008,0.09040965620489116,0.0037934334161801126,0.002282504253523991,0.0015808769091177996,0.11640301302862543,0.0031563561037580698,0.0036744558794397975,0.0038358083117901523,0.08119096809603885,0.00980678769224639,0.0018914339638056745,0.0029201667043444257
0.005968916272488291,0.00696148443500103,0.010624209553408641,0.005171655987846251,0.041050459633324744,0.0009119542673996506,0.0007292254503401244,0.00164135744230475,0.04757007673170665,0.00470053602920403,0.00408349988939989,0.3849816459090168,0.06797449433655196,0.004881836667757722,0.0035993026499802293,0.006684267649580545,0.06993844026852829,0.0006573030016296319,0.002428204001202101,0.0020430151025934186,0.10001696537262465,0.001695256332846784,0.002282504253523991,0.00031523450685609183,0.13152079327729463,0.002395710240084128,0.00934506808653425,0.0031713185667335293,0.06999121909532391,0.007098416703295922,0.0006644366982948719,0.0029201667043444257
0.004790305072873755,0.00696148443500103,0.003910320664519684,0.0012297196511029103,0.02581653158453567,0.001630196305961161,0.0007292254503401244,0.0002655985722953369,0.09133957844070745,0.002355896161363586,0.00408349988939989,0.5737601672191018,0.1029806970137267,0.005757850632290513,0.0022173395146189044,0.0050947161479480575,0.18521152811913186,0.001045382144165065,0.00020162241860376636,0.0013656939169758293,0.1361810433093204,0.0014516186671533853,0.002998215638947073,0.0009480557079869457,0.13279421872165703,0.0016350643764101859,0.0036744558794397975,0.002506828821676906,0.1054523137128725,0.004390045714345454,0.0018914339638056745,0.003842129164252154
0.005968916272488291,0.007819244269119938,0.003910320664519684,0.0006570981175316152,0.03427633810977548,0.0035368486785216867,0.0007292254503401244,0.002172239022438328,0.07072180086963767,0.00470053602920403,0.00408349988939989,0.141911704522446,0.08696950931062285,0.004006040130369105,0.0022173395146189044,0.0058895905428937015,0.07791186490475328,0.0006573030016296319,0.004251540746592657,0.000688540842846379,0.13504846394220085,0.0035500561671531856,0.002282504253523991,0.00031523450685609183,0.08998789382540852,0.0008744185127362439,0.002835306103547382,0.0011781791849988295,0.1054523137128725,0.004390045714345454,0.0006644366982948719,0.0029201667043444257
0.005968916272488291,0.006103724600882123,0.005041901557702517,0.0020552816602203753,0.02581653158453567,0.004808160620440615,0.005656651851438785,0.0028077858391526347,0.057878965517241344,0.0015744142095504953,0.0010073112030908394,0.13854658226388528,0.10596458086833434,0.0017518105019214076,0.0022173395146189044,0.00350516464631557,0.08770781350914758,0.0008513425728973484,0.00020162241860376636,0.0013656939169758293,0.10001696537262465,0.0014516186671533853,0.0026403599462355323,0.00031523450685609183,0.11640301302862543,0.0008744185127362439,0.002835306103547382,0.0011781791849988295,0.05008370812914895,0.0034873300880738476,0.0006644366982948719,0.0029201667043444257
0.005968916272488291,0.006103724600882123,0.009517457113257985,0.004683347946123643,0.05035310865940969,0.006079157022041607,0.006385175222611449,0.005985835487181406,0.056611992233810714,0.0007927382453362324,0.0010073112030908394,0.13742496766252138,0.06797449433655196,0.0030009844501722545,0.0005465867561038972,0.002710487539628726,0.08953033747731687,0.0008513425728973484,0.002226581582598212,0.000688540842846379,0.10001696537262465,0.002097916666666741,0.002282504253523991,0.00031523450685609183,0.0887144683810461,0.0008744185127362439,0.0036744558794397975,0.0011781791849988295,0.13655948101561977,0.004390045714345454,0.0012779353310502731,0.0029201667043444257
0.0047071593385958855,0.00696148443500103,0.005041901557702517,0.004026249828592064,0.041050459633324744,0.005443658821241111,0.003557200336475787,0.006621382303895747,0.07650938707653412,0.001574220197149323,0.002545405546245364,0.13910752879180177,0.07123144761186732,0.001378433091059081,0.0005465867561038972,0.0019158104329419256,0.10183223382054349,0.0008513425728973484,0.00020162241860376636,0.0013656939169758293,0.08136863672071716,0.002744214666180097,0.002282504253523991,0.00031523450685609183,0.07741704694598131,0.0016350643764101859,0.0036744558794397975,0.002506828821676906,0.08119096809603885,0.006195476966888666,0.0018914339638056745,0.0029201667043444257
0.005968916272488291,0.00696148443500103,0.00727967933548025,0.0033691517110604847,0.05035310865940969,0.0035368486785216867,0.003557200336475787,0.005350288670467064,0.086818275862069,0.001574220197149323,0.00408349988939989,0.13910752879180177,0.06499083681650666,0.0017518105019214076,0.0005465867561038972,0.004299841753002414,0.06993844026852829,0.001045382144165065,0.004654785583800436,0.002720336288211008,0.11696642497385344,0.002744214666180097,0.002282504253523991,0.0015808769091177996,0.0887144683810461,0.0031563561037580698,0.0036744558794397975,0.002506828821676906,0.08119096809603885,0.008001356439703178,0.0006644366982948719,0.0029201667043444257
0.004790305072873755,0.005246177663222447,0.00727967933548025,0.0006570981175316152,0.02581653158453567,0.0035368486785216867,0.010584078252537446,0.002172239022438328,0.09387283535239627,0.0007927382453362324,0.009174310981890338,0.5737601672191018,0.05223634776233555,0.004379417541231336,0.003311199205145935,0.006684267649580545,0.06993844026852829,0.0006573030016296319,0.00020162241860376636,0.002720336288211008,0.10001696537262465,0.004842652166180128,0.0026403599462355323,0.0006326641345632346,0.07741704694598131,0.0016350643764101859,0.002835306103547382,0.002506828821676906,0.08119096809603885,0.006195476966888666,0.0018914339638056745,0.0029201667043444257
0.004790305072873755,0.00696148443500103,0.0022377777777777335,0.0032008509115861593,0.035119180610620616,0.001630196305961161,0.007756103366401784,0.0006357045989428725,0.07650938707653412,0.007045175897044474,0.009174310981890338,0.3849816459090168,0.07598020135538502,0.009261471636133424,0.0035993026499802293,0.007478944756267389,0.07973438887292257,0.0006573030016296319,0.00020162241860376636,0.0013656939169758293,0.09040965620489116,0.0006462979995134714,0.002282504253523991,0.00031523450685609183,0.0887144683810461,0.0008744185127362439,0.0036744558794397975,0.002506828821676906,0.07434505374598267,0.006195476966888666,0.0012779353310502731,0.0029201667043444257
0.005968916272488291,0.006103724600882123,0.012862542886741884,0.006485689130797884,0.05035310865940969,0.0009945403350016266,0.0049281284802661215,0.00164135744230475,0.10418206896551717,0.006263499932830211,0.009174310981890338,0.3849816459090168,0.0617338835411913,0.008385675098744905,0.004981265785341554,0.010658047759532364,0.07973434136936502,0.0006573030016296319,0.004654785583800436,0.0013656939169758293,0.10849169517323905,0.0006462979995134714,0.0026403599462355323,0.00031523450685609183,0.07741704694598131,0.0016350643764101859,0.001996156327654967,0.002506828821676906,0.08119096809603885,0.006195476966888666,0.0018914339638056745,0.0029201667043444257
0.005968916272488291,0.006103724600882123,0.015100320664519742,0.007142787248329463,0.05628393388622316,0.0015474524682000763,0.0049281284802661215,0.0035483134569048373,0.045036130164845395,0.007045175897044474,0.00408349988939989,0.3849816459090168,0.05223634776233555,0.011888861248298986,0.007745878234383744,0.010658047759532364,0.12142403602221681,0.0006573030016296319,0.00020162241860376636,0.0013656939169758293,0.06328713638921718,0.0010489583333334284,0.002282504253523991,0.0015808769091177996,0.10510559159356059,0.0016350643764101859,0.002835306103547382,0.002506828821676906,0.1054523137128725,0.007098416703295922,0.0006644366982948719,0.0029201667043444257
0.005968916272488291,0.004388630725562771,0.012862542886741884,0.007142787248329463,0.041050459633324744,0.0015474524682000763,0.002828676965303123,0.0035483134569048373,0.086818275862069,0.007826851861258737,0.00408349988939989,0.3849816459090168,0.06797449433655196,0.008385675098744905,0.007745878234383744,0.009068693546158765,0.06993844026852829,0.0008513425728973484,0.004654785583800436,0.0020430151025934186,0.044638269100462244,0.0006462979995134714,0.002282504253523991,0.002846205178244269,0.10510559159356059,0.002395710240084128,0.0036744558794397975,0.0038358083117901523,0.1054523137128725,0.007098416703295922,0.0006644366982948719,0.0047640916241598824
0.004790305072873755,0.006103724600882123,0.008385876220075398,0.004514720962426196,0.03131069859842329,0.00027645606659922484,0.0007292254503401244,0.0022770620412476228,0.09387283535239627,0.00470053602920403,0.00408349988939989,0.3849816459090168,0.06499083681650666,0.008385675098744905,0.0035993026499802293,0.009068693546158765,0.10183223382054349,0.0006573030016296319,0.006881919942362504,0.002720336288211008,0.11696642497385344,0.002744214666180097,0.002282504253523991,0.002846205178244269,0.11640301302862543,0.002395710240084128,0.0036744558794397975,0.0038358083117901523,0.08554484907876883,0.008001356439703178,0.0006644366982948719,0.0029201667043444257
0.004790305072873755,0.006103724600882123,0.0005652348910357831,0.0012297196511029103,0.035119180610620616,0.0009945403350016266,0.002828676965303123,0.001005810625590408,0.086818275862069,0.006263499932830211,0.006628905435645113,0.14135089722176405,0.11247826108440272,0.004006040130369105,0.0035993026499802293,0.0058895905428937015,0.10365471028515517,0.0006573030016296319,0.002428204001202101,0.002720336288211008,0.10001696537262465,0.002744214666180097,0.002282504253523991,0.0015808769091177996,0.08998789382540852,0.00011377264906230188,0.0036744558794397975,0.0038358083117901523,0.12785181171430224,0.006195476966888666,0.0006644366982948719,0.0029201667043444257
0.005379610672681023,0.003530870891443864,0.0044761111111111,0.0020552816602203753,0.02581653158453567,0.0035368486785216867,0.003557200336475787,0.002172239022438328,0.09387283535239627,0.003137572125577849,0.0010073112030908394,0.13798577496320333,0.07448840088718268,0.0012491739482508469,0.0022173395146189044,0.004299841753002414,0.0858852895409783,0.0023604108597245466,0.004654785583800436,0.002720336288211008,0.14465577310993463,0.002744214666180097,0.0026403599462355323,0.0009480557079869457,0.1440916401567219,0.0016350643764101859,0.001996156327654967,0.0031713185667335293,0.1054523137128725,0.007098416703295922,0.0012779353310502731,0.0029201667043444257
0.004790305072873755,0.00696148443500103,0.01846967933548031,0.006654316114495331,0.041050459633324744,0.009256963566361952,0.009213150108747268,0.006621382303895747,0.09133957844070745,0.002344639867840444,0.0010073112030908394,0.13293809157536224,0.048979422778840466,0.00825619852879211,0.003311199205145935,0.0007948743949456875,0.08155686533753431,0.0023604108597245466,0.002226581582598212,0.002720336288211008,0.10001696537262465,0.0006462979995134714,0.002282504253523991,0.0009480557079869457,0.0887144683810461,0.0016350643764101859,0.006509761982987024,0.002506828821676906,0.1054523137128725,0.007098416703295922,0.0012779353310502731,0.001998433076022708
0.0047071593385958855,0.004388630725562771,0.02070745711325804,0.009939154333707055,0.05035310865940969,0.01116345816876323,0.009213150108747268,0.00979958973415305,0.07072180086963767,0.003115059538531565,0.006099386151363828,0.13349889887604416,0.08398590837421817,0.010884022995246405,0.003311199205145935,0.0007948743949456875,0.06993844026852829,0.0006573030016296319,0.002226581582598212,0.0013656939169758293,0.11696642497385344,0.002744214666180097,0.002998215638947073,0.00031523450685609183,0.11894986391735028,0.0016350643764101859,0.0036744558794397975,0.0018425040033378678,0.1122982280629286,0.00529276134061706,0.0006644366982948719,0.0029201667043444257
0.004790305072873755,0.007819244269119938,0.009517457113257985,0.005997381089075276,0.04273614463501528,0.008621465365561527,0.0049281284802661215,0.005985835487181406,0.05914593880067197,0.002355896161363586,0.007636848566627082,0.13742496766252138,0.08398590837421817,0.004752577524949295,0.006075125475868737,0.0050947161479480575,0.05763654392530173,0.001045382144165065,0.00020162241860376636,0.003397489362340458,0.11696642497385344,0.002744214666180097,0.0026403599462355323,0.0015808769091177996,0.11767643847298787,0.0016350643764101859,0.0036744558794397975,0.002506828821676906,0.1210058973642462,0.006195476966888666,0.0006644366982948719,0.0029201667043444257
0.005379610672681023,0.005246177663222447,0.009517457113257985,0.004683184854012119,0.030467856097578145,0.006079157022041607,0.0049281284802661215,0.004714741853752757,0.056611992233810714,0.002344639867840487,0.00408349988939989,0.13742496766252138,0.06797449433655196,0.0017518105019214076,0.0035993026499802293,0.0019158104329419256,0.12142403602221681,0.001045382144165065,0.002428204001202101,0.0020430151025934186,0.11696642497385344,0.004842652166180128,0.0026403599462355323,0.0015808769091177996,0.09691002998730334,0.00011377264906230188,0.0036744558794397975,0.0038358083117901523,0.10887527088790055,0.008001356439703178,0.0006644366982948719,0.0029201667043444257
0.0047071593385958855,0.00696148443500103,0.0044761111111111,0.0006570981175316152,0.035119180610620616,0.004808160620440615,0.006385175222611449,0.0028077858391526347,0.09260620689655186,0.001574220197149323,0.005091443020381859,0.1402292826204002,0.06648266557652932,0.0017518105019214076,0.0013819631353614008,0.0050947161479480575,0.0858852895409783,0.0006573030016296319,0.006881919942362504,0.002720336288211008,0.1361810433093204,0.005891610499513441,0.002282504253523991,0.0015808769091177996,0.0887144683810461,0.002395710240084128,0.0036744558794397975,0.0038358083117901523,0.09332168723652685,0.008001356439703178,0.0006644366982948719,0.0029201667043444257
0.005968916272488291,0.00953433814443929,0.0022377777777777335,0.002543752794054544,0.05628393388622316,0.002265694506761657,0.002828676965303123,0.0012712514156572145,0.07072180086963767,0.007045175897044474,0.00408349988939989,0.3849816459090168,0.06499083681650666,0.0066338645968234,0.0022173395146189044,0.008273819151213077,0.08953033747731687,0.0015088569306770893,0.004654785583800436,0.002720336288211008,0.0638539647096241,0.0037934334161801126,0.0026403599462355323,0.0015808769091177996,0.10510559159356059,0.0016350643764101859,0.002835306103547382,0.0038358083117901523,0.1122982280629286,0.008904072065974784,0.0012779353310502731,0.0029201667043444257
0.005968916272488291,0.005246177663222447,0.012862542886741884,0.005828591013266306,0.041050459633324744,0.0006354982008004257,0.0049281284802661215,0.00164135744230475,0.08103068965517256,0.007826851861258737,0.00408349988939989,0.3849816459090168,0.08547770884242051,0.008385675098744905,0.004981265785341554,0.009068693546158765,0.12142403602221681,0.0008513425728973484,0.004654785583800436,0.002720336288211008,0.31700035571910246,0.002744214666180097,0.0026403599462355323,0.0015808769091177996,0.07741704694598131,0.0016350643764101859,0.0036744558794397975,0.0038358083117901523,0.10887527088790055,0.00980678769224639,0.0006644366982948719,0.001998433076022708
0.005379610672681023,0.006103724600882123,0.015100320664519742,0.006485689130797884,0.030467856097578145,0.0009119542673996506,0.010584078252537446,0.0035483134569048373,0.07072180086963767,0.006263499932830211,0.009174310981890338,0.3849816459090168,0.0617338835411913,0.010137268173521945,0.004981265785341554,0.010658047759532364,0.0858852895409783,0.0023604108597245466,0.00020162241860376636,0.0013656939169758293,0.027689886772928652,0.0006462979995134714,0.002282504253523991,0.00031523450685609183,0.07614362150161887,0.0016350643764101859,0.0036744558794397975,0.002506828821676906,0.08119096809603885,0.006195476966888666,0.0012779353310502731,0.0029201667043444257
0.004790305072873755,0.002673111057324957,0.003910320664519684,0.005171655987846251,0.03808482012197268,0.00027645606659922484,0.007756103366401784,0.0035483134569048373,0.09133957844070745,0.007826851861258737,0.009174310981890338,0.3849816459090168,0.05372817652235821,0.009261471636133424,0.0063635720098626485,0.009068693546158765,0.1337259323654434,0.0006573030016296319,0.004453163165196547,0.000688540842846379,0.4786050497934181,0.0006462979995134714,0.004923519701235549,0.00031523450685609183,0.13152079327729463,0.00011377264906230188,0.0036744558794397975,0.002506828821676906,0.1054523137128725,0.004390045714345454,0.0012779353310502731,0.0029201667043444257
0.005968916272488291,0.002673111057324957,0.008385876220075398,0.002543752794054544,0.02285089207318361,0.001630196305961161,0.005656651851438785,0.001005810625590408,0.086818275862069,0.0054820179810171205,0.00408349988939989,0.3849816459090168,0.07123144761186732,0.004006040130369105,0.004981265785341554,0.007478944756267389,0.063787492096915,0.0006573030016296319,0.00020162241860376636,0.000688540842846379,0.44244204913041757,0.0006462979995134714,0.002282504253523991,0.0006326641345632346,0.10510559159356059,0.0016350643764101859,0.0036744558794397975,0.0018425040033378678,0.1054523137128725,0.004390045714345454,0.0006644366982948719,0.0010766994477009902
0.005968916272488291,0.007819244269119938,0.003910320664519684,0.0007414116093803385,0.04189330213417001,0.002901350477721191,0.0007292254503401244,0.002172239022438328,0.09133957844070745,0.003137572125577849,0.00408349988939989,0.141911704522446,0.08398590837421817,0.002254229628447698,0.0013819631353614008,0.0050947161479480575,0.05763654392530173,0.001045382144165065,0.004251540746592657,0.0013656939169758293,0.3893285115924933,0.0006462979995134714,0.0026403599462355323,0.00031523450685609183,0.09818345543166576,0.0016350643764101859,0.001996156327654967,0.0011781791849988295,0.1122982280629286,0.006195476966888666,0.0012779353310502731,0.0010766994477009902
0.004790305072873755,0.006103724600882123,0.005041901557702517,0.0007414116093803385,0.041050459633324744,0.0035368486785216867,0.0049281284802661215,0.0015366922057240208,0.086818275862069,0.002355896161363586,0.00408349988939989,0.14079008992108213,0.06648266557652932,0.0031300261658363145,0.0013819631353614008,0.004299841753002414,0.063787492096915,0.0006573030016296319,0.002428204001202101,0.0013656939169758293,0.11696642497385344,0.002744214666180097,0.002282504253523991,0.00031523450685609183,0.0887144683810461,0.0016350643764101859,0.0036744558794397975,0.002506828821676906,0.1054523137128725,0.008001356439703178,0.0006644366982948719,0.001998433076022708
0.005379610672681023,0.004388630725562771,0.0028035682243691498,0.0006570981175316152,0.04189330213417001,0.0035368486785216867,0.0049281284802661215,0.0015366922057240208,0.09133957844070745,0.003919054077390939,0.00408349988939989,0.14079008992108213,0.07598020135538502,0.002254229628447698,0.0022173395146189044,0.0050947161479480575,0.06993844026852829,0.0008513425728973484,0.00020162241860376636,0.0020430151025934186,0.279703698415288,0.0037934334161801126,0.002282504253523991,0.0015808769091177996,0.0887144683810461,0.002395710240084128,0.0036744558794397975,0.002506828821676906,0.1054523137128725,0.008001356439703178,0.0012779353310502731,0.0029201667043444257
0.005968916272488291,0.006103724600882123,0.003910320664519684,0.0020552816602203753,0.03808482012197268,0.004808160620440615,0.003557200336475787,0.0028077858391526347,0.09260620689655186,0.002355896161363586,0.0010073112030908394,0.13854658226388528,0.10596458086833434,0.0030009844501722545,0.0022173395146189044,0.002710487539628726,0.05763654392530173,0.0006573030016296319,0.004654785583800436,0.0013656939169758293,0.38819593222537424,0.004842652166180128,0.002998215638947073,0.0006326641345632346,0.0830657576635137,0.0016350643764101859,0.0036744558794397975,0.002506828821676906,0.10109847906221371,0.006195476966888666,0.0006644366982948719,0.0029201667043444257
0.005379610672681023,0.007819244269119938,0.0005652348910357831,0.001398346634800357,0.035119180610620616,0.005443658821241111,0.006385175222611449,0.002172239022438328,0.07072180086963767,1.1256293523141928e-05,0.0010073112030908394,0.13966847531971824,0.06499083681650666,0.0038767809875607747,0.0013819631353614008,0.0050947161479480575,0.063787492096915,0.001045382144165065,0.004654785583800436,0.0013656939169758293,0.2989183167507547,0.002744214666180097,0.002998215638947073,0.00031523450685609183,0.07614362150161887,0.002395710240084128,0.002835306103547382,0.0031713185667335293,0.09332164090445567,0.008904072065974784,0.0006644366982948719,0.0010766994477009902
0.004790305072873755,0.008676791206779614,0.003910320664519684,0.002543752794054544,0.019885252561831546,0.002265852276920695,0.0049281284802661215,0.0002655985722953369,0.08229697328343057,0.0031373781131766765,0.00408349988939989,0.14135089722176405,0.1029806970137267,0.00663364716967913,0.0022173395146189044,0.004299841753002414,0.06993844026852829,0.001045382144165065,0.002428204001202101,0.002720336288211008,0.2808362777824073,0.0037934334161801126,0.00528137539394709,0.0015808769091177996,0.11767643847298787,0.0031563561037580698,0.006509761982987024,0.0038358083117901523,0.07434505374598267,0.00980678769224639,0.0012779353310502731,0.0029201667043444257
0.004790305072873755,0.007819244269119938,0.0005652348910357831,0.003857785937006178,0.04273614463501528,0.0006354982008004257,0.010584078252537446,0.00164135744230475,0.0752427586206897,0.006263499932830211,0.006628905435645113,0.3849816459090168,0.1029806970137267,0.00663364716967913,0.004981265785341554,0.0058895905428937015,0.07973438887292257,0.0006573030016296319,0.004654785583800436,0.0020430151025934186,0.17177883156245594,0.0037934334161801126,0.002998215638947073,0.0022135410436810343,0.1440916401567219,0.002395710240084128,0.0036744558794397975,0.0038358083117901523,0.08896780625379688,0.00529276134061706,0.0006644366982948719,0.0047640916241598824
0.005379610672681023,0.006103724600882123,0.010624209553408641,0.005828591013266306,0.05035310865940969,0.00027645606659922484,0.005656651851438785,0.002276904259019092,0.06818785430277603,0.006263499932830211,0.00408349988939989,0.14135089722176405,0.048979422778840466,0.009261471636133424,0.004981265785341554,0.004299841753002414,0.12142403602221681,0.0008513425728973484,0.004654785583800436,0.002720336288211008,0.17234512124601553,0.0010489583333334284,0.0026403599462355323,0.0015808769091177996,0.06102584125294962,0.0016350643764101859,0.005671316106325818,0.002506828821676906,0.07434505374598267,0.0034873300880738476,0.0012779353310502731,0.0047640916241598824
0.00605206200676615,0.005246177663222447,0.00727967933548025,0.0032008509115861593,0.035119180610620616,0.001630196305961161,0.0049281284802661215,0.0035483134569048373,0.07072180086963767,0.001562963903626224,0.009174310981890338,0.13910752879180177,0.05698512979767356,0.004752577524949295,0.003311199205145935,0.004299841753002414,0.06993844026852829,0.001045382144165065,0.002226581582598212,0.002720336288211008,0.13561475362576061,0.0010489583333334284,0.007564535148947107,0.0009480557079869457,0.0887144683810461,0.0008744185127362439,0.00934506808653425,0.0018425040033378678,0.13655948101561977,0.004390045714345454,0.0018914339638056745,0.0029201667043444257
0.005968916272488291,0.005246177663222447,0.0044761111111111,0.0020552816602203753,0.05035310865940969,0.0035368486785216867,0.0049281284802661215,0.0035483134569048373,0.07072180086963767,0.0007814819518131336,0.007636848566627082,0.13742496766252138,0.10447263894103052,0.0065043880268707025,0.0027642693598824196,0.00350516464631557,0.08770781350914758,0.0015088569306770893,0.004251540746592657,1.1387768716928741e-05,0.14465577310993463,0.0006462979995134714,0.00528137539394709,0.0006326641345632346,0.09818345543166576,0.0016350643764101859,0.002835306103547382,0.0011781791849988295,0.07434505374598267,0.004390045714345454,0.0006644366982948719,0.0029201667043444257
0.005968916272488291,0.004388630725562771,0.008385876220075398,0.0013140331429516336,0.04951026615856455,0.005443658821241111,0.009213150108747268,0.0035483134569048373,0.09133957844070745,0.006263499932830211,0.008644791697609192,0.13966847531971824,0.06797449433655196,0.004006040130369105,0.0035993026499802293,0.004299841753002414,0.09568128564893018,0.0006573030016296319,0.011335635883522908,0.0013429183795420465,0.11696642497385344,0.0006462979995134714,0.008278935531417847,0.0009500937622703772,0.07741704694598131,0.00011377264906230188,0.004832166330433403,0.0031713185667335293,0.07434505374598267,0.006195476966888666,0.0032196729919016674,0.0010766994477009902
0.005968916272488291,0.0018155641196652805,0.006148098442297541,0.002543752794054544,0.041050459633324744,0.001630196305961161,0.002828676965303123,0.0035483134569048373,0.063666896551724,0.0054820179810171205,0.00408349988939989,0.14079008992108213,0.06499083681650666,0.007509661134212017,0.0022173395146189044,0.0019158104329419256,0.11345061138599183,0.0018967247170623665,0.004654785583800436,0.0020430151025934186,0.17234512124601553,0.0014516186671533853,0.004923519701235549,0.0006326641345632346,0.13279421872165703,0.0016350643764101859,0.0036744558794397975,0.0038358083117901523,0.10887527088790055,0.008001356439703178,0.0006644366982948719,0.001998433076022708
0.004790305072873755,0.002673111057324957,0.0067138888888889576,0.003857785937006178,0.03808482012197268,0.002818764410119075,0.007756103366401784,0.004819407090333521,0.06818785430277603,0.003919054077390939,0.006628905435645113,0.13854658226388528,0.06499083681650666,0.0026276070393100245,0.0005465867561038972,0.002710487539628726,0.06993844026852829,0.0040630960055192435,0.004654785583800436,0.0020430151025934186,0.20737608117874431,0.006940568832846754,0.002282504253523991,0.00031523450685609183,0.12459861587514125,0.002395710240084128,0.0036744558794397975,0.0031713185667335293,0.08554484907876883,0.007098416703295922,0.0018914339638056745,0.0029201667043444257
0.005379610672681023,0.0018155641196652805,0.009517457113257985,0.0005727846256828919,0.035119180610620616,0.002818764410119075,0.0049281284802661215,0.005454953907047828,0.09260620689655186,0.00470053602920403,0.009174310981890338,0.13742496766252138,0.06797449433655196,0.00738040199140359,0.003311199205145935,0.004299841753002414,0.07358339319775174,0.005766203863614251,0.004453163165196547,0.0006771530741294876,0.1531305029105489,0.002744214666180097,0.0026403599462355323,0.001582914963401266,0.0887144683810461,0.0007608347032627654,0.001996156327654967,0.0011781791849988295,0.14775927634840588,0.004390045714345454,0.0012779353310502731,0.001998433076022708
0.005968916272488291,0.005246177663222447,0.003910320664519684,0.0018866546765229288,0.04273614463501528,0.0025421505733608817,0.010584078252537446,0.005454953907047828,0.10291544050967276,0.002355896161363586,0.0010073112030908394,0.13854658226388528,0.0822207555671051,0.0026276070393100245,0.0005465867561038972,0.0019158104329419256,0.063787492096915,0.003211753432621895,0.002428204001202101,0.0006771530741294876,0.10001696537262465,0.0014516186671533853,0.0026403599462355323,0.0022157361645321547,0.0887144683810461,0.00011377264906230188,0.0036744558794397975,0.0011781791849988295,0.13998243819064782,0.004390045714345454,0.0006644366982948719,0.0010766994477009902
0.005968916272488291,0.002673111057324957,0.0044761111111111,0.0006570981175316152,0.045701784146367344,0.004808160620440615,0.006385175222611449,0.002276904259019092,0.06818785430277603,0.0031148655261304787,0.002545405546245364,0.13742496766252138,0.08072895509890277,0.0017518105019214076,0.0013819631353614008,0.0004686154636362497,0.08953033747731687,0.0017028965019448058,0.002226581582598212,1.1387768716928741e-05,0.10849169517323905,0.0025008374171532856,0.00528137539394709,0.0009500937622703772,0.0887144683810461,0.0016350643764101859,0.0036744558794397975,0.0006643248183391115,0.10887527088790055,0.00529276134061706,0.0006644366982948719,0.0010766994477009902
0.004790305072873755,0.002673111057324957,0.003910320664519684,0.0007414116093803385,0.035119180610620616,0.004808160620440615,0.006385175222611449,0.002276904259019092,0.06818785430277603,0.0015517076101031254,0.006099386151363828,0.1368640211346049,0.048979422778840466,0.0030009844501722545,0.0022173395146189044,0.0020579696770098503,0.10183223382054349,0.003599621219007172,0.0044537159411604035,0.0013429183795420465,0.16330410176184168,0.002097916666666741,0.002998215638947073,0.0006326641345632346,0.0887144683810461,0.0008744185127362439,0.001996156327654967,0.00015047045167939336,0.10887527088790055,0.0025846144618022417,0.0012779353310502731,0.0029201667043444257
0.006807659075129123,0.00696148443500103,0.0028035682243691498,0.002543752794054544,0.02581653158453567,0.0009945403350016266,0.011312601623710266,0.0035481556746763065,0.06818785430277603,0.0015517076101031254,0.00408349988939989,0.13518146000532452,0.06648266557652932,0.010008009030713519,0.003311199205145935,0.0011211333262551254,0.07176091673314001,0.002748067289959668,0.006881919942362504,0.002720336288211008,0.18929458084724404,0.002744214666180097,0.002282504253523991,0.002846205178244269,0.12459861587514125,0.0016350643764101859,0.0036744558794397975,0.002506828821676906,0.08119096809603885,0.006195701077024315,0.0006644366982948719,0.003842129164252154
0.006641367606573418,0.006103937497341354,0.003910320664519684,0.0005727846256828919,0.035119180610620616,0.0015474524682000763,0.007756103366401784,0.006090500723762135,0.057878965517241344,0.002355896161363586,0.002545405546245364,0.13518146000532452,0.11071333461185204,0.00825619852879211,0.004693162340507336,0.0019158104329419256,0.07973434136936502,0.001045382144165065,0.004251540746592657,0.004074642436469909,0.5339837460655802,0.004842652166180128,0.004923519701235549,0.002846205178244269,0.11767643847298787,0.0031563561037580698,0.006509761982987024,0.0038358083117901523,0.08119096809603885,0.00980678769224639,0.0018914339638056745,0.0029201667043444257
0.005968916272488291,0.005246177663222447,0.009517457113257985,0.0006570981175316152,0.041050459633324744,0.005720114887840266,0.042423344311622806,0.0035481556746763065,0.057878965517241344,0.0015517076101031254,0.00408349988939989,0.13630307460668842,0.06797449433655196,0.004752577524949295,0.003310856115986317,0.00126329257032305,0.06993844026852829,0.0027482786461098707,0.004251540746592657,0.004074642436469909,0.25314746828317336,0.012185881332846723,0.004923519701235549,0.002846205178244269,0.13844292943918948,0.003917190807020836,0.006509761982987024,0.002506828821676906,0.11665206271358741,0.010709727428653646,0.0018914339638056745,0.0010766994477009902
0.004790305072873755,0.002673111057324957,0.0005652348910357831,0.0006570981175316152,0.035119180610620616,0.007350153423642459,0.008484626737574448,0.004449301063685985,0.046303103448276026,0.0038965414903446988,0.0076368485666272225,0.13349889887604416,0.06648266557652932,0.005628374062337815,0.0022173395146189044,0.005237072680274826,0.08953033747731687,0.005302517720951978,0.002428204001202101,0.0013656939169758293,0.027689886772928652,0.005891610499513441,0.002998215638947073,0.0009480557079869457,0.13279421872165703,0.002395710240084128,0.001996156327654967,0.0011781791849988295,0.1054523137128725,0.00529276134061706,0.0012779353310502731,0.0029201667043444257
0.005968916272488291,0.002673111057324957,0.00727967933548025,0.004026249828592064,0.03808482012197268,0.0124347701106823,0.0049281284802661215,0.002172239022438328,0.09133957844070745,0.002333383574317345,0.008644791697609192,0.13237714504744574,0.05698512979767356,0.004752577524949295,0.003311199205145935,0.003647718466901225,0.05763654392530173,0.005302517720951978,0.011335635883522908,0.004074642436469909,0.027689886772928652,0.004842652166180128,0.00563857558518246,0.003478869312807468,0.07614362150161887,0.0031563561037580698,0.002835306103547382,0.00450013313012919,0.10887527088790055,0.008001132329567527,0.0032196729919016674,0.006607558880803318
0.005379610672681023,0.002673111057324957,0.0067138888888889576,0.004599034454274919,0.035119180610620616,0.001630196305961161,0.014869801960186052,0.004183860273619179,0.07072180086963767,0.0015517076101031254,0.002545405546245364,0.13574226730600647,0.08696950931062285,0.009132212493324998,0.006075125475868737,0.0011211333262551254,0.10183223382054349,0.002748067289959668,0.01356221746612112,0.009492539475458067,0.24467327711940642,0.0037934334161801126,0.002282504253523991,0.007275325319889734,0.11075430231109301,0.006960151940894292,0.006509761982987024,0.006493107585146305,0.05879147009460911,0.012515382791332508,0.0012779353310502731,0.007529521340711046
0.005968916272488291,0.002673111057324957,0.0134283333333333,0.005171655987846251,0.03808482012197268,0.004808002850281647,0.024725356841550836,0.008633003555076565,0.07650938707653412,0.0015517076101031254,0.009174310981890338,0.13798577496320333,0.07598020135538502,0.0030009844501722545,0.003311199205145935,0.0019158104329419256,0.0858852895409783,0.003599621219007172,0.002226581582598212,0.008137897104222963,0.2977857373836358,0.005891610499513441,0.007563879647471081,0.0060098399841956454,0.06102584125294962,0.004678025510283601,0.00934506808653425,0.005828782766807267,0.1054523137128725,0.010709727428653646,0.0006644366982948719,0.007529521340711046
0.005968916272488291,0.004388630725562771,0.011190000000000058,0.004514720962426232,0.03427633810977548,0.0019066523725603858,0.016240730103976232,0.008633003555076565,0.063666896551724,0.0031373781131766765,0.002545405546245364,0.14079008992108213,0.07598020135538502,0.0026276070393100245,0.0013819631353614008,0.0019158104329419256,0.06993844026852829,0.002554239074842107,0.00910850152496084,0.005429116696216948,0.1361810433093204,0.006940568832846754,0.00563857558518246,0.004111533447370668,0.07741704694598131,0.004678025510283601,0.002835306103547382,0.00450013313012919,0.08119096809603885,0.00980678769224639,0.0032196729919016674,0.0047640916241598824
0.004790305072873755,0.004388630725562771,0.021813653997853066,0.012398593635912877,0.04951026615856455,0.0059964131842803825,0.011312601623710266,0.009268708154019471,0.06818785430277603,0.00470053602920403,0.002545405546245364,0.14079008992108213,0.08072895509890277,0.009261471636133424,0.004981608874501324,0.0007948743949456875,0.08953033747731687,0.00615386029384928,0.009109054300924574,0.0047519636220874975,0.4062779711937221,0.0041960937500000696,0.005280719892470919,0.003478869312807468,0.0887144683810461,0.004678025510283601,0.0036744558794397975,0.0038358083117901523,0.09332168723652685,0.00980678769224639,0.0012779353310502731,0.003842129164252154
0.004790305072873755,0.002673111057324957,0.005041901557702517,0.005828591013266306,0.035119180610620616,0.0006354982008004257,0.016240028024809082,0.005454953907047828,0.09133957844070745,0.002355896161363586,0.01681179147640883,0.1396683360924837,0.08696950931062285,0.004006040130369105,0.003311199205145935,0.0011211333262551254,0.0858852895409783,0.007662928580676571,0.028948324453596776,0.006783590955963988,0.37011389325702665,0.002744214666180097,0.01548627048912973,0.0060098399841956454,0.09691002998730334,0.003917190807020836,0.012181078089312842,0.0006643248183391115,0.1054523137128725,0.007098416703295922,0.0012779353310502731,0.003842129164252154
0.007480110409214239,0.006103724600882123,0.0218142095534087,0.005828591013266306,0.04189330213417001,0.006631911385080808,0.01979722836128487,0.010539801787448086,0.086818275862069,0.001574220197149323,0.010182886040763717,0.13854672149111982,0.071231419320047,0.004752577524949295,0.0063635720098626485,0.0011211333262551254,0.09568128564893018,0.02062816352615492,0.02004089257127597,0.007460912141581577,0.027689886772928652,0.01323510008284674,0.02376520602054772,0.005377018783064756,0.0887144683810461,0.006199317237631568,0.005671316106325818,0.0011781791849988295,0.08119096809603885,0.0025846144618022417,0.0044976083229519405,0.006607558880803318
0.005968916272488291,0.004388630725562771,0.01566611111111116,0.014369724896396126,0.041050459633324744,0.003177806544320381,0.021896679876247868,0.009904097188505177,0.06945482758620686,0.001562963903626224,0.021902602568899417,0.13854658226388528,0.08696950931062285,0.004006040130369105,0.005528538719764839,0.0011211333262551254,0.08953033747731687,0.004257135576786913,0.024696230931040262,0.012201319883464082,0.027689886772928652,0.0077461499171533705,0.01020489509518264,0.0031636348059514113,0.10510559159356059,0.004678025510283601,0.011342632212651636,0.0011781791849988295,0.07434505374598267,0.0025846144618022417,0.003169052110609072,0.006607558880803318
0.005379610672681023,0.006103724600882123,0.005041346002146884,0.002543752794054544,0.04189330213417001,0.004089760811719996,0.01906870499011205,0.010539801787448086,0.09133957844070745,0.006263499932830211,0.026994045589281278,0.13798577496320333,0.06499083681650666,0.0026276070393100245,0.007457431700389755,0.002710487539628726,0.063787492096915,0.003211753432621895,0.015386106987475657,0.0013429183795420465,0.4786050497934181,0.007989527166180066,0.012845910542894197,0.007275325319889734,0.14663849104544674,0.0016350643764101859,0.012181078089312842,0.0011781791849988295,0.1054523137128725,0.0034873300880738476,0.002555553477853671,0.0056858252524816
0.004790305072873755,0.005246177663222447,0.012862542886741884,0.0032006878194745627,0.041050459633324744,0.001630196305961161,0.006385175222611449,0.008633003555076565,0.056611992233810714,0.001574220197149323,0.023918488830863498,0.13742496766252138,0.07598020135538502,0.005628374062337815,0.009127841369745069,0.0015895515016324877,0.0858852895409783,0.0018967247170623665,0.026721190095034708,0.006106437881834537,0.25314746828317336,0.0037934334161801126,0.013560966426841254,0.004111533447370668,0.12459861587514123,0.006199317237631568,0.013338788540306604,0.002506828821676906,0.08119096809603885,0.007098416703295922,0.008330779947609009,0.0047640916241598824
0.004790305072873755,0.002673111057324957,0.008386431775630785,0.0077995591816379575,0.04951026615856455,0.002265852276920695,0.009213150108747268,0.0073619099216479505,0.09133957844070745,0.0015517076101031254,0.009174942909781748,0.13405984540396065,0.06797449433655196,0.001378433091059081,0.0027642693598824196,0.0020579696770098503,0.0858852895409783,0.002554239074842107,0.00870580946371704,0.006106437881834537,0.452049358298151,0.004842652166180128,0.004923519701235549,0.0015808769091177996,0.09126131926977095,0.002395710240084128,0.012181078089312842,0.005164457948468228,0.1054523137128725,0.0116126671650609,0.0038331716246570685,0.0047640916241598824
0.0046240136043180155,0.003530870891443864,0.013994123779924717,0.0032008509115861593,0.05628393388622316,0.002901350477721191,0.002828676965303123,0.0073619099216479505,0.09387283535239627,0.0007927382453362324,0.006628905435645113,0.13349889887604416,0.08072895509890277,0.00825619852879211,0.006075125475868737,0.0015895515016324877,0.07973434136936502,0.004450963791904474,0.004251540746592657,0.003397489362340458,0.027689886772928652,0.004842652166180128,0.01584412618184127,0.007275325319889734,0.11640301302862543,0.003156544943346893,0.012181078089312842,0.005164457948468228,0.1054523137128725,0.008904072065974784,0.002555553477853671,0.008451483800618774
0.0046240136043180155,0.004187690236870915,0.008385876220075398,0.004514720962426196,0.041050459633324744,0.0015474524682000763,0.0049281284802661215,0.009904097188505177,0.1286004215592926,0.002355896161363586,0.016281640264236414,0.13405984540396065,0.06499083681650666,0.0065043880268707025,0.0035993026499802293,0.0004686154636362497,0.10547718674976686,0.0018967247170623665,0.01578935182468331,0.009492539475458067,0.027689886772928652,0.001695256332846784,0.0026403599462355323,0.009173474790147022,0.07741704694598131,0.007720986644157015,0.001996156327654967,0.00450013313012919,0.08119096809603885,0.007098416703295922,0.0044976083229519405,0.008451483800618774
0.005968916272488291,0.008676791206779614,0.006148098442297541,0.004514720962426196,0.030467856097578145,0.0009945403350016266,0.003557200336475787,0.009268550371790871,0.07650938707653412,0.003919054077390939,0.007636848566627082,0.13630307460668842,0.10922136439272799,0.0030009844501722545,0.0022173395146189044,0.002710487539628726,0.1496728766450085,0.003599621219007172,0.006680297523758739,0.004074642436469909,0.027689886772928652,0.004842652166180128,0.002282504253523991,0.006642504118758845,0.07741704694598131,0.006960151940894292,0.0036744558794397975,0.005828782766807267,0.06999121909532391,0.006195476966888666,0.0019420548450982695,0.010294951057262209
0.004790305072873755,0.008676791206779614,0.0044761111111111,0.007142624156217939,0.035119180610620616,0.0009945403350016266,0.010584078252537602,0.012446600019819678,0.08103068965517256,0.0015517076101031254,0.011720348456026972,0.13630321383392296,0.07598020135538502,0.004752577524949295,0.006075125475868737,0.0015895515016324877,0.10547718674976686,0.005302517720951978,0.01356221746612112,0.012878641069081634,0.027689886772928652,0.004842652166180128,0.01020489509518264,0.009173474790147022,0.10510559159356059,0.003917190807020836,0.015017088092091433,0.005828782766807267,0.1054523137128725,0.008904072065974784,0.003169052110609072,0.007529521340711046
0.004790305072873755,0.0018155641196652805,0.010624209553408641,0.009113592324589592,0.041050459633324744,0.002818764410119075,0.0049281284802661215,0.012446600019819678,0.07072180086963767,0.00470053602920403,0.002545405546245364,0.13854658226388528,0.04748759401881785,0.003503403576698545,0.004146232495243744,0.002710487539628726,0.11162813492138014,0.0015088569306770893,0.00465533835976417,0.006106269770346436,0.027689886772928652,0.006940568832846754,0.00563857558518246,0.007275325319889734,0.08998789382540852,0.007720986644157015,0.002835306103547382,0.005164457948468228,0.1054523137128725,0.013418098417604114,0.0032196729919016674,0.0056858252524816
0.004790305072873755,0.005246177663222447,0.021813653997853066,0.008456657299169572,0.03808482012197268,0.0034542626109195355,0.014869801960186052,0.011175506386390994,0.09133957844070745,0.006263499932830211,0.011190197243854555,0.1402292826204002,0.0617338835411913,0.0048820540949018965,0.0063635720098626485,0.0027104875396287698,0.1275749841938301,0.001045382144165065,0.015788799048719455,0.002720336288211008,0.027689886772928652,0.005891610499513441,0.008278935531417847,0.004111533447370668,0.07614362150161887,0.006199506077220308,0.004832166330433403,0.00450013313012919,0.08119096809603885,0.008001356439703178,0.0044976083229519405,0.006607558880803318
0.008069416009021507,0.008676791206779614,0.015100320664519742,0.011084560492961243,0.05035310865940969,0.0015474524682000763,0.008484626737574604,0.010539801787448086,0.09133957844070745,0.002344639867840444,0.005091443020381859,0.13910752879180177,0.06499083681650666,0.003503621003842815,0.004146232495243744,0.0007948743949456875,0.09568128564893018,0.004451175148054676,0.002428204001202101,0.006106437881834537,0.51590224573408,0.0014516186671533853,0.0026403599462355323,0.007275325319889734,0.09126131926977095,0.0031563561037580698,0.008506622209873044,0.00450013313012919,0.10887527088790055,0.007098416703295922,0.0012779353310502731,0.006607558880803318
0.005379610672681023,0.007819244269119938,0.00727967933548025,0.005171655987846251,0.026659374085380813,0.0009119542673996506,0.013412053138673264,0.008633003555076565,0.08103068965517256,0.002344639867840444,0.011720348456026972,0.1368640211346049,0.07448840088718268,0.0038767809875607747,0.006075125475868737,0.002710487539628726,0.06993844026852829,0.002748067289959668,0.0044537159411604035,0.0047519636220874975,0.5701478240022759,0.0014516186671533853,0.01020489509518264,0.005377175849632446,0.13152079327729463,0.004678025510283601,0.012181078089312842,0.0013288145633956613,0.10887527088790055,0.00529276134061706,0.0018914339638056745,0.006607558880803318
0.00605206200676615,0.006103724600882123,0.0067138888888889576,0.002543752794054544,0.041050459633324744,0.0006354982008004257,0.006385175222611449,0.0073619099216479505,0.086818275862069,0.007045175897044474,0.006099386151363828,0.13574226730600647,0.06648266557652932,0.0030009844501722545,0.0027642693598824196,0.0011211333262551254,0.10547718674976686,0.001045382144165065,0.004251540746592657,0.0020430151025934186,0.027689886772928652,0.0014516186671533853,0.00563857558518246,0.003478869312807468,0.13279421872165703,0.0031563561037580698,0.01050348243675922,0.00015047045167939336,0.11665206271358741,0.0019294118898271879,0.0044976083229519405,0.006607558880803318
0.005968916272488291,0.008676791206779614,0.012862542886741884,0.00582875410537783,0.02581653158453567,0.001630196305961161,0.006385175222611449,0.0073619099216479505,0.09260620689655186,0.0015744142095504953,0.007636848566627082,0.13742496766252138,0.06499083681650666,0.001378433091059081,0.004146232495243744,0.0019158104329419256,0.05763654392530173,0.003599621219007172,0.004654785583800436,0.003397489362340458,0.027689886772928652,0.0010489583333334284,0.007921735340182477,0.004744354648501556,0.10510559159356059,0.0031563561037580698,0.005671316106325818,0.0018425040033378678,0.07434505374598267,0.001805655362678862,0.0012779353310502731,0.006607558880803318
0.00605206200676615,0.0043884178291035405,0.0022377777777777335,0.006485689130797884,0.05035310865940969,0.0015474524682000763,0.0049281284802661215,0.012446600019819678,0.063666896551724,0.002344639867840487,0.009174310981890338,0.13966847531971824,0.06499083681650666,0.001378433091059081,0.003311199205145935,0.0050947161479480575,0.09568128564893018,0.004451175148054676,0.002428204001202101,0.0047519636220874975,0.027689886772928652,0.00903848549951338,0.007564535148947107,0.006642661185326534,0.11640301302862543,0.003917190807020836,0.00934506808653425,0.00450013313012919,0.05008370812914895,0.00529276134061706,0.0012779353310502731,0.003842129164252154
0.005968916272488291,0.0007570766933137488,0.003910320664519684,0.01108472358507284,0.03427633810977548,0.0059964131842803825,0.007756103366401784,0.01308230461876255,0.09133957844070745,0.00470053602920403,0.009174310981890338,0.13966847531971824,0.06648266557652932,0.001378433091059081,0.0005465867561038972,0.00350516464631557,0.1275749841938301,0.0017028965019448058,0.004654785583800436,0.0074607440300934755,0.027689886772928652,0.004842391749513425,0.013203110734129712,0.004744354648501556,0.0887144683810461,0.006199317237631568,0.0036744558794397975,0.00450013313012919,0.09332164090445567,0.010709727428653646,0.0006644366982948719,0.0047640916241598824
0.005968916272488291,0.004187690236870915,0.006148098442297541,0.011741658610492858,0.041050459633324744,0.005360914983479957,0.007756103366401784,0.015624649667848413,0.09260620689655186,0.010171491729099223,0.009174310981890338,0.1402292826204002,0.045995765258795236,0.005757850632290513,0.0035993026499802293,0.0058895905428937015,0.06993844026852829,0.0018967247170623665,0.02024251498987986,0.008815218289840514,0.027689886772928652,0.006940568832846754,0.013203110734129712,0.00727516825332208,0.11640301302862543,0.004678025510283601,0.006509761982987024,0.005164457948468228,0.13998243819064782,0.00980678769224639,0.0006644366982948719,0.007529521340711046
0.007480110409214239,0.0034306135435571666,0.017338098442297598,0.01108472358507284,0.019885252561831546,0.002818764410119075,0.007756103366401784,0.014989102851134107,0.09133957844070745,0.0062636939452313835,0.011720348456026972,0.1402292826204002,0.07448840088718268,0.0031300261658363145,0.0022173395146189044,0.0050947161479480575,0.10365471028515517,0.001045382144165065,0.00890687910635695,0.009492539475458067,0.8413773312537969,0.0006462979995134714,0.01020489509518264,0.009806138924710257,0.0887144683810461,0.006199317237631568,0.00934506808653425,0.005164457948468228,0.07434505374598267,0.008001356439703178,0.0012779353310502731,0.010294951057262209
0.005968916272488291,0.0018155641196652805,0.017338098442297598,0.007799722273749518,0.041050459633324744,0.00027645606659922484,0.006385175222611449,0.014989102851134107,0.07072180086963767,0.002355896161363586,0.005091443020381859,0.13910752879180177,0.06797449433655196,0.0008757965373885203,0.004981265785341554,0.0050947161479480575,0.21710522666403181,0.001045382144165065,0.009109054300924574,0.0074607440300934755,0.027689886772928652,0.002097916666666741,0.005280719892470919,0.008540810655583823,0.07741704694598131,0.006199317237631568,0.005671316106325818,0.0038358083117901523,0.1210058973642462,0.00529276134061706,0.0032196729919016674,0.008451483800618774
