L_Quad: EMG 1,L_Quad: Acc 1.X,L_Quad: Acc 1.Y,L_Quad: Acc 1.Z,L_Hamstrings: EMG 2,L_Hamstrings: Acc 2.X,L_Hamstrings: Acc 2.Y,L_Hamstrings: Acc 2.Z,L_AnteriorTibialis: EMG 3,L_AnteriorTibialis: Acc 3.X,L_AnteriorTibialis: Acc 3.Y,L_AnteriorTibialis: Acc 3.Z,L_Calf: EMG 4,L_Calf: Acc 4.X,L_Calf: Acc 4.Y,L_Calf: Acc 4.Z,R_Quad: EMG 5,R_Quad: Acc 5.X,R_Quad: Acc 5.Y,R_Quad: Acc 5.Z,R_Hamstrings: EMG 6,R_Hamstrings: Acc 6.X,R_Hamstrings: Acc 6.Y,R_Hamstrings: Acc 6.Z,R_AnteriorTibialis: EMG 7,R_AnteriorTibialis: Acc 7.X,R_AnteriorTibialis: Acc 7.Y,R_AnteriorTibialis: Acc 7.Z,R_Calf: EMG 8,R_Calf: Acc 8.X,R_Calf: Acc 8.Y,R_Calf: Acc 8.Z
0.11996347209219971,0.12499555268586408,0.015462350677262943,0.3313223425466414,0.16790447953684728,0.3090237338872757,0.008101545119739248,0.33664269153860754,0.2492973820215202,0.206489279315888,0.005690051568442943,0.13932287105021013,0.48325423218076635,0.07864393605051408,0.6718125095950218,0.19111813867528654,0.36898044036915256,0.06676104243516513,0.011340001213043694,0.3107232691233044,0.42150402585625674,0.8023253064552408,0.02628153995670076,0.3472927634365012,0.35714926273618947,0.22764608182063453,0.02158006853755673,0.2905761707222854,0.5624134665917611,0.05995607973519055,0.6038368755319298,0.019641683522905535
0.11996347209219971,0.12499555268586408,0.015462350677262943,0.3313223425466414,0.16790447953684728,0.3090237338872757,0.008101545119739248,0.33664269153860754,0.2492973820215202,0.206489279315888,0.005690051568442943,0.13932287105021013,0.48325423218076635,0.07864393605051408,0.6718125095950218,0.19111813867528654,0.36898044036915256,0.06676104243516513,0.011340001213043694,0.3107232691233044,0.42150402585625674,0.8023253064552408,0.02628153995670076,0.3472927634365012,0.35714926273618947,0.22764608182063453,0.02158006853755673,0.2905761707222854,0.5624134665917611,0.05995607973519055,0.6038368755319298,0.019641683522905535
0.04148894830476548,0.12499555268586408,0.015462350677262943,0.3313223425466414,0.12229500976745912,0.3090237338872757,0.008101545119739248,0.33664269153860754,0.13793103448275873,0.206489279315888,0.005690051568442943,0.13932287105021013,0.10329508571314933,0.07864393605051408,0.6718125095950218,0.19111813867528654,0.40090283106283076,0.06676104243516513,0.011340001213043694,0.3107232691233044,0.42150402585625674,0.8023253064552408,0.02628153995670076,0.3472927634365012,0.3432925358543096,0.22764608182063453,0.02158006853755673,0.2905761707222854,0.3909848030010261,0.05995607973519055,0.6038368755319298,0.019641683522905535
0.029646350147333574,0.7223323549322043,0.4106487604338482,0.9429177609491036,0.0496876672650388,0.31416839450441525,0.04806478826925222,0.11461448219598872,0.0944960597311689,0.4162905283603956,0.27109976592370993,0.6113031961027953,0.05825120813123583,0.6953966977884118,0.2697120144005073,0.8776812795069944,0.45235607018694246,0.6307142531361234,0.07186087530729228,0.816738848351131,0.3196602762124497,0.12996636021142596,0.13103881433736694,0.012389676521233616,0.15918739810731097,0.10320087775155333,0.24682782254329896,0.27842100486602817,0.2645561267846206,0.7216346366918145,0.41841096475207873,0.8398119205414029
0.14538730362793711,0.7010427090121524,0.47120431598940377,0.8858355218982071,0.03607379054583472,0.33152311200393064,0.13447579524496991,0.06096852447928849,0.0393236459380654,0.466733752658163,0.4265540271889377,0.5932036556140532,0.03310142973694054,0.7345335837690317,0.26285023120606166,0.855979571032429,0.4362048606097838,0.7726905840133784,0.199283828939808,0.2221901482030113,0.8373316720750368,0.18229166666666666,0.1526703630528013,0.1474669247149681,0.15630920346608468,0.4295156871926153,0.1837176993609336,0.24873419570489877,0.13992285514703226,0.41963961048856196,0.1354376734570585,0.6782946537117752
0.07474093563218016,0.6903978860521264,0.3327777777777778,0.7781947282593737,0.05899346578321662,0.30470218495922496,0.30297479541194416,0.0672798136224297,0.6192970437171069,0.5540393331735299,0.5232389945612136,0.6307950089368254,0.14199499618366673,0.6888738834583086,0.24054943582411328,0.9250304616333191,0.3587468668432406,0.7638686277451876,0.2714129982760039,0.17343781664949975,0.9520199350995583,0.3333148897885741,0.18812892367665615,0.939433723541593,0.20456030600120226,0.6770843031572824,0.7928313420394555,0.2850180735685014,0.2798457102940645,0.6639196583128097,0.2462169063531211,0.8499183431957131
0.1571657184162021,0.6983003861777047,0.3383333333333333,0.14979938659662886,0.15406072211226796,0.29681367700489975,0.1134134202240981,0.14301528334012417,0.42274531957917594,0.23585899529530405,0.07520211961387005,0.2769665601908605,0.03680930803638828,0.6062515686103332,0.08371375497223685,0.5546314798143273,0.41686402640966985,0.5715345310876505,0.7078377157298765,0.2070601142726112,0.8098611928559205,0.09090386021142592,0.1311002952450565,0.28254417290870254,0.2326036818335783,0.7526201386760468,0.20225988700564984,0.33779462318828696,0.2668148520758452,0.8493774139944028,0.10031215274598554,0.8087286577195681
0.041921458461110825,0.3902138785793936,0.4039820937671815,0.115550043166091,0.22485884657223826,0.2510603308698136,0.540924363757652,0.2897527559181572,0.11724137931034473,0.40076953626877476,0.3172305019902206,0.26304383673798193,0.0747203472222861,0.6584340832511597,0.35745496957182427,0.570414540523102,0.41197804624404594,0.714383787585138,0.24101032026138025,0.21042234403492233,0.2588356979312936,0.051841360211425894,0.09826374052610277,0.2715495131720032,0.27960032969305454,0.28222080793102483,0.1342039455404277,0.2949136766222112,0.24139009116425095,0.7860729191393765,0.055906358169900756,0.8933963445316441
0.035030685183622484,0.5945944794118925,0.3767598715449593,0.15143030771236876,0.31765712344808916,0.04122601928476323,0.008101545119739248,0.8778357355629659,0.3124004919929686,0.7128616463050158,0.45688656597239685,0.18507658540186164,0.05714947698172645,0.5052359932392704,0.15160147373845503,0.40074663790377196,0.4922590585540402,0.5951514178679596,0.47289174316532584,0.27598582439998953,0.46401495132466863,0.11434136021142595,0.06555014762252818,0.194586895015108,0.30460054984989615,0.336984288682129,0.12716495322774823,0.3328468216614321,0.20988428272054832,0.8583418194191458,0.09079662533682452,0.9061730804751922
0.030848229207360592,0.8239092971060114,0.18009320487829267,0.17589412444846728,0.1794792575082256,0.09644557496503967,0.2787254294428699,0.8368123561325481,0.23103448275862068,0.9146345434960859,0.24013529924892887,0.22962930045107321,0.05825120813123583,0.5580707893131073,0.02474635435879794,0.10461696135538304,0.2927441167185516,0.8424381135705072,0.14261619868678,0.31801369642887883,0.2588356979312936,0.026283639788574065,0.20982195329978007,0.18987489798509402,0.15918739810731097,0.37286381055354206,0.03565805316291564,0.3278990201345772,0.5217570004415352,0.7625281179849832,0.03338627663488633,0.8960666578208819
0.05720944325728691,0.7031716736041576,0.09675987154495926,0.17263228221698748,0.40387834266971345,0.24948262927894857,0.3521203371273117,0.283441466775016,0.32274531957917546,0.9417962796564221,0.3671474043115748,0.2198833940340582,0.0939587850181148,0.8592073842195432,0.23737376366902552,0.16419801553100827,0.12505655846158137,0.7976856117728864,0.11939960820288555,0.2944780880927008,0.24748293865634016,0.06795030645524078,0.04594658424345926,0.21971754584184933,0.18021992998159303,0.406854936536986,0.034731869963878906,0.35593656212008823,0.7325100463160862,0.7289115976421968,0.04639083076073973,0.9120848688393827
0.022034449433828988,0.9744524248959378,0.1062043159894037,0.17752504556420717,0.24958773985207017,0.9385266686424268,0.17973226684477248,0.22348421991517456,0.34482758620689663,0.9786586358740216,0.43665947235700175,0.2839279219172999,0.06787042702915023,0.8070248695787168,0.5736011401968619,0.4520415852072903,0.3929222333894112,0.8783686590999373,0.06909699548778103,0.29784031785501197,0.14141286519075724,0.06274197312190744,0.10494171710373475,0.21343488313516398,0.2103166952836549,0.47672558439184315,0.05584884690191727,0.35428729494447,0.8507147062507833,0.8028679423963269,0.052734515700180416,0.9418329750165985
0.02140938916998273,0.9616786373439065,0.0345376493227371,0.1791559666799471,0.2725074150894516,0.2999690801866298,0.43140001364911873,0.22979550905831578,0.25517241379310346,0.817628342923456,0.35450884648513364,0.23659066217751257,0.07692380952130494,0.541763753487849,0.0027007784189846443,0.9072745183359474,0.3111007985906227,0.7934584887694242,0.11636743435447096,0.32473815595350103,0.17530560110023077,0.057049693544759285,0.12460676139049325,0.20872288610515,0.34608824997838183,0.3860825817693258,0.04927294618875618,0.3674814323494164,0.5819886930544963,0.8432077668076704,0.04004714582129905,0.9303913957176694
0.04298720771363366,0.9616786373439065,0.054351239566151864,0.22971452126788394,0.2563946782116721,0.25579343564240875,0.29519665518081456,0.2566184879166659,0.41929704371710697,0.8467302030952448,0.4177016356173398,0.2672206537738455,0.143156610657196,0.7874564265884069,0.29672818830098036,0.5329297713397617,0.2950445961286239,0.7892313657659618,0.12189519399349331,0.27262359463767843,0.17182515433133533,0.17684136021142594,0.01311002952450552,0.23542420260856264,0.4882760380927938,0.3634218311136965,0.1623599147911455,0.36913069952503463,0.6148729174358494,0.9003690883048502,0.08128109792766348,0.9097965529795968
0.013396862103135827,0.9446469206078649,0.20435123956615175,0.21666715234196474,0.14748366445804142,0.3220569024587404,0.08073910424667524,0.9535712052806605,0.21379310344827585,0.8622511951868657,0.4177016356173398,0.27278974315499693,0.0747203472222861,0.7939792409185102,0.5084141998496283,0.5092551802765993,0.2232667206254278,0.886822905106862,0.04946535481620366,0.29952143273616755,0.17530560110023077,0.11173719354475928,6.148090768942732e-05,0.24170686531524793,0.26557864177686646,0.39552456120917134,0.04973603778827455,0.37077996670065294,0.9122206044593417,0.8118323478210698,0.02442318701684663,0.9120848688393826
0.019005631049928667,0.9552917435678908,0.27101790623281846,0.21992899457344453,0.25662455891704716,0.31416839450441525,0.21872529532845697,0.9535712052806605,0.25517241379310346,0.837029583037982,0.24708110496038263,0.2839279219172999,0.0939587850181148,0.7874564265884069,0.30942248721070476,0.4914992369792276,0.3587468668432406,0.9164127661310985,0.044506559047178616,0.3012025476173231,0.1809819807377074,0.033612193544759326,0.04594658424345926,0.23071220557854866,0.3142421468977543,0.42762729130464616,0.028619060850236185,0.3575858292957066,0.6458227410246632,0.7692514220535405,0.059078200639621097,0.9189498164187402
0.030223168943514348,0.9701944957119273,0.2932401284550407,0.20525070453178543,0.5173273153297452,0.24159412132462338,0.2046837119812091,0.2424180873445982,0.29310344827586193,0.8622511951868657,0.24076182604716198,0.2700051984644212,0.07582207837179551,0.8370945056965912,0.570170248599639,0.46979752850466205,0.22551969647792022,0.922753450636292,0.094256395798381,0.29784031785501197,0.1987569967030179,0.046633026878092614,0.05905661376796492,0.23385353693189131,0.38486271649994935,0.39930135298510955,0.07085301472631275,0.35428729494447,0.5701972545602052,0.8454488681638561,0.04004714582129905,0.9418329750165985
0.05230585984500881,0.9850972478559635,0.3543512395661519,0.21829807345770463,0.4583338495465288,0.1911076704169421,0.14565379253262484,0.2865971113465866,0.502055664406762,0.8641913191983182,0.22180398930750006,0.26443610908326975,0.05825120813123583,0.562766139742978,0.6422189721413183,0.4776890588590495,0.13763811495514544,0.899504274117249,0.08872863615935851,0.262536905350745,0.15003105474969566,0.06746636021142591,0.03926860766582728,0.25427219072861856,0.2606470576659543,0.4106317283129242,0.021116976938038365,0.3526380277688516,0.5932358401664243,0.8499310708762278,0.030214434165165987,0.9555628701753136
0.08613466596860427,0.7351061424842354,0.4321290173439295,0.23950004796232333,0.4876007017327619,0.21792859746164775,0.23978767034932877,0.9551490275664457,0.9634615769725481,0.8971734273930125,0.08909913212986648,0.2839279219172999,0.08258217357890159,0.6693054404679987,0.20306484769679728,0.4619059981502746,0.193217277323603,0.899504274117249,0.02239552049108867,0.25749356070727825,0.18665836037518407,0.07267469354475925,0.026158578141321612,0.26683751614198925,0.32084058827007805,0.4257388954166771,0.020653885338519997,0.34933949341761505,0.4893245505730179,0.8409666654514847,0.04321898829101939,0.9382095025121938
0.10078164859943257,0.7436220008522563,0.376573461788374,0.25580925911972235,0.27658561258510245,0.28734746745970957,0.4012658788426791,0.20297253019996567,0.4862068965517241,0.9165746675075384,0.06888284070064941,0.32151927524007207,0.046428526934302675,0.7222282832873738,0.18393972446993678,0.4776890588590495,0.27124531378110484,0.8783686590999373,0.02072100469328673,0.26589913511305613,0.17530560110023077,0.06486219354475924,0.03926860766582728,0.2589841877586326,0.2519693564464487,0.4125201242008933,0.020653885338519997,0.3460409590663785,0.5435678597963518,0.8252789559581843,0.017209880039312588,0.9555628701753136
0.3183217584643262,0.9595496727519014,0.20990679512170732,0.309629655939139,0.4127243797771408,0.9337935638698318,0.02916392014061105,0.1729939067700449,0.4344827586206898,0.9689580158167586,0.012638557826441294,0.3382265433835264,0.03901277033540712,0.7048341117404316,0.21275921388660843,0.5250382409853742,0.22551969647792022,0.9037313971207115,0.050034318686201104,0.28271028392461184,0.15003105474969566,0.05704969354475923,0.02628153995670076,0.24641886234526192,0.20456030600120226,0.4181853118648007,0.03565805316291564,0.35098876059323336,0.3243823769559864,0.8230378546019986,0.026091038954529543,0.9313445549328365
0.40440818296526493,0.9531627789758857,0.04277777777777782,0.9331322342546643,0.35826887290032533,0.9053949352342611,0.04806478826925222,0.10199190390970633,0.14482758620689648,0.5035961088757624,0.049925003960987466,0.3994865265761924,0.12420109106424712,0.8613816556629111,0.20864214396994107,0.544767066871343,0.0982101621638465,0.9037313971207115,0.05556207832522359,0.3028836624984787,0.24748293865634016,0.07267469354475925,0.013171510432195093,0.21657621448850667,0.13402221691616123,0.38419418588135673,0.06381402241363346,0.36913069952503463,0.5621006882926475,0.8588954763009709,0.019747354015088862,0.9120848688393827
0.1971081658444339,0.9680655311199221,0.0723154271005149,0.7945039394167728,0.25435557946384657,0.9069726368251261,0.38722429549543136,0.03196520815346577,0.19794433559323793,0.49389548881849943,0.06951206804542698,0.4259397011366617,0.11458187216633274,0.7193136836654572,0.3541119476921887,0.49544500215642134,0.35639888387558843,0.9248670121380231,0.1544927879576308,0.36676602798239033,0.17530560110023077,0.04142469354475933,0.03283655471895359,0.1788802382483947,0.18021992998159303,0.3464262681219745,0.04973603778827455,0.9552308424964603,0.34754841257635605,0.9608788249218657,0.055742496764255196,0.9029316054002393
0.20093823693501897,0.6329158420679861,0.06546235067726298,0.7765638071436339,0.2089759903998338,0.9148611447794512,0.2678708370438245,0.08148021419449743,0.060013301110479214,0.486134992772689,0.31659317300580975,0.7101545326182334,0.2979428092944751,0.811003248376178,0.1853120811088259,0.5605501275801177,0.18561670811082248,0.8623330927063204,0.15007058024641282,0.371809372625857,0.1144810228190746,0.04663302687809255,0.05905661376796492,0.15689091877499609,0.2907850632265933,0.38230578999338766,0.007502083912197821,0.9453352394427506,0.13720080914340024,0.9384678113600082,0.049398811824814516,0.9052199212600253
0.04464571766383878,0.5413703646117626,0.0977777777777778,0.7602545959862349,0.43314519485594644,0.30627988655009,0.3521203371273117,0.06412416905085909,0.17586206896551737,0.5617998292193404,0.3608281253983543,0.4259397011366617,0.7964446827687426,0.7178797404006383,0.26971201440050724,0.49544500215642134,0.30312020091720315,0.7659821892469189,0.13017064554593186,0.3751716023881682,0.19013880714407952,0.07007052687809258,0.07872165805472342,0.15846158445166744,0.5188024528989567,0.38419418588135673,0.034731869963878906,0.9387381707402774,0.28772216240499016,0.95863772356568,0.091267132425123,0.907508237119811
0.02701815811677557,0.7031716736041576,0.5932401284550407,0.2001140209012856,0.2861212918086554,0.22897250859770304,0.2819124203910724,0.24241808734459816,0.28070295628289316,0.5734405732880559,0.2660389417000446,0.35354153918169295,0.6077082997858834,0.8961699987567954,0.09194789480557158,0.46782464591606526,0.4707602556165935,0.7533008202365318,0.18544824193615672,0.9798069918232213,0.22916928584359597,0.1091330268780926,0.05905661376796492,0.13961359633161144,0.6062404245414118,0.3917477694332331,0.0840048161526351,0.920596231808476,0.19413137849869705,0.9339856086476366,0.10680916052675263,0.8892017102415243
0.16145242039696517,0.914841416319792,0.4438888888888889,0.14123776862307527,0.14521468500484078,0.24474952450635346,0.6602778222092588,0.25504066563088057,0.10828916317944477,0.9728382638396637,0.14724189922458536,0.4748605062645848,0.3785744971152278,0.7787593408149358,0.4089183435301666,0.711959142064858,0.20486253519577674,0.7702093122503811,0.26781186055759165,0.9545902686058877,0.18665836037518407,0.12475802687809262,0.13116177615274607,0.07678696926475817,0.48539784345156745,0.36153343522572745,0.276873205520052,0.892558689822965,0.35496154397487434,0.95863772356568,0.19371764419708992,0.8205522344479491
0.05474150176806587,0.8531014431516415,0.015462350677262943,0.6754466979677601,0.2584337769594975,0.16270904178137136,0.1940972550806299,0.05307941305036197,0.20344827586206893,0.294062715638882,0.22117476196272234,0.47058805270729726,0.6693844680136871,0.5718333896057233,0.6718125095950218,0.6471054890597707,0.1909643014711106,0.7807771197590371,0.6193773735994216,0.7478131382237525,0.10312826354412122,0.1429871935447593,0.19015690901302157,0.003141331353342665,0.4194220531874951,0.28788599559493216,0.812540520514958,0.8414314073787977,0.3113515187377671,0.8740295289124461,0.41987001228815013,0.7427494952152307
0.030623795296856687,0.8531014431516415,0.19444444444444436,0.22645267903640412,0.27681549329047783,0.29365827382316967,0.7648876181462552,0.14774875019748007,0.3124004919929686,0.3736078001084384,0.20916543148105876,0.4008787989214802,0.7231389265608557,0.9527010562843573,0.23780472254633508,0.32183133435989747,0.2578221156322374,0.3728597499249198,0.12353733397910488,0.5076966941089822,0.28978662391930526,0.1273621935447593,0.2950371452090669,0.02059430268886433,0.6272729564156939,0.267113640827272,0.5746225803463927,0.871118216539927,0.14264490115066428,0.847689969520042,0.27301370594009844,0.6306220180857245
0.028444471087306526,0.9425179560158597,0.35898209376718154,0.20688162564752532,0.16336652063044588,0.7381585666025667,0.6743194055565066,0.26766324391716295,0.3586206896551725,0.6529118143511305,0.576952865323589,0.3493647221458293,0.6787207687087217,0.8197003341496489,0.4226419099190578,0.6175122502308177,0.1573589776158986,0.7799041941388044,0.2816312596551479,0.5984768976913829,0.22220839230580516,0.06746636021142591,0.22948699758653857,0.0422323243779889,0.9246152207560339,0.32754230924228345,0.17175141242937847,0.24213712700242557,0.19413137849869705,0.7513226112040544,0.0671611296552484,0.822840550307735
0.03285136097407232,0.8169090450875531,0.726573461788374,0.20688162564752532,0.07714530140882173,0.22897250859770304,0.7663470458711233,0.21243946391467744,0.29655172413793107,0.6856999101446793,0.3147027904249324,0.40227107126676803,0.3372085561707522,0.8088289769328102,0.26147787456717253,0.629349545762399,0.14571371974372474,0.4789055352727448,0.5950552311877226,0.03194118274195584,0.28411024428182863,0.05753363978857409,0.1311002952450565,0.16631491283502406,0.31499309501130607,0.3124351421385306,0.15133833472260813,0.16132303539712886,0.3034750666268415,0.7440456502536722,0.1352024199129092,0.6599881268334886
0.02100876281664039,0.7855879344499177,0.3477777777777777,0.1856796511429067,0.11367885336540708,0.06331384155687378,0.34644843439826917,0.8289232447036217,0.3344827586206897,0.21645775518077806,0.10173768995630791,0.3883483478138895,0.7050022199145363,0.7149651407787219,0.12557063245835517,0.5349026539283586,0.16186492932088334,0.6742261190522456,0.6105329581769856,0.2003356547479889,0.3918376137685592,0.046633026878092614,0.02628153995670076,0.7635191677544041,0.46477771416305563,0.7828344728835525,0.531684727239048,0.03713321707307085,0.32664110224721105,0.6000615065759586,0.1447179473220702,0.5547255972833399
0.02403758120054073,0.2893009569183473,0.3973154271005149,0.1677395188697678,0.09075917812802556,0.747624776147757,0.32225433781933827,0.236106798201457,0.33103448275862074,0.4104701563260377,0.1030069468320409,0.36746426263457155,0.6255620882293228,0.6540855403644242,0.04833163666204819,0.5427941842827461,0.22551969647792022,0.7545414561180304,0.2904756750775839,0.23732018213341144,0.5006422569501571,0.04402886021142594,0.5518707620739984,0.8624711053846977,0.6841758897928211,0.7270324168681068,0.1628415300546449,0.17451717280207527,0.16870661758710298,0.7804569288344693,0.1922955843678753,0.5204008593865523
0.032274542177891545,0.6009813731879081,0.20435123956615175,0.26559478581416174,0.05922334648859187,0.8059997350097634,0.3591411288009356,0.23452897591567168,0.23793103448275862,0.49777573684140464,0.025277115652882588,0.3897406201591773,0.5404037091624928,0.9026928130868986,0.06239829221066177,0.5763331882888926,0.19143933704690935,0.7925855631491916,0.1677594110912847,0.2003356547479889,0.5658587009684758,0.16382052687809265,0.1710858852947988,0.9347217265115791,0.2495035643909926,0.8659238919541933,0.4439196072983235,0.12009135600667135,0.15839780537251558,0.6952950772994103,0.5158235162793499,0.48378780562997903
0.021057004284305885,0.968065531119922,0.09879568401059635,0.24439281130954305,0.0496876672650388,0.30470218495922496,0.11686854667076678,0.2739745330603042,0.2655172413793104,0.4531528845779948,0.031596394566103234,0.6892704474389155,0.5876510490434251,0.6975709692317796,0.06239829221066177,0.970406761171047,0.21744409168934092,0.7300516437174888,0.04946535481620366,0.2255523779653225,0.5475450481557316,0.057049693544759285,0.3671423075938479,0.1788802382483947,0.16206559274853727,0.8772542672820081,0.4087246457349263,0.25368199723175366,0.07511583368080978,0.7513226112040544,0.012134932087760042,0.6851596012911328
0.026665773231098703,0.6776240985000952,0.01666666666666668,0.2916895236660001,0.06330154398424263,0.265259645187599,0.06561676745331206,0.2329511536298864,0.19655172413793118,0.5035961088757623,0.044234952392544526,0.6948395368200669,0.2947708257387771,0.7454049409858705,0.02122759304398789,0.9605423482280625,0.27884588299388535,0.7342787667209512,0.01686776085206618,0.26589913511305613,0.6929769969628179,0.06795030645524078,0.25689509777262126,0.13961359633161144,0.20743850064242858,0.7356245756843248,0.31017875335741407,0.20255471478758635,0.29832066051954786,0.9362267100038223,0.012134932087760042,0.9038847646154062
0.03285136097407232,0.8451989430260632,0.054351239566151864,0.30799873482339907,0.08418212047379878,0.2778812579145193,0.16255896193946548,0.22032857534360395,0.21034482758620687,0.44539238853218444,0.09541841104308713,0.6906627197842033,0.6920179242440738,0.7910646412965937,0.05553650901621612,0.9763254089368375,0.1573589776158986,0.7110295902019083,0.1716450307446956,0.23059572260878916,0.3976217207755226,0.07315863978857405,0.47517708935564035,0.23071220557854863,0.20743850064242858,0.78849966054746,0.39464666110956753,0.2371893254755707,0.22048278083510603,0.6863306718746672,0.012134932087760042,0.8316118163174264
0.02283570214051368,0.9318731330558336,0.009906795121707383,0.25417833800398243,0.06353142468961777,0.3189014992770104,0.05022629516148285,0.2408402650588129,0.1468832506136585,0.4259911484176585,0.10173768995630776,0.7018008985465063,0.22746623511538652,0.7693219268629159,0.04181294262732483,0.982244056702628,0.45235607018694246,0.7342787667209512,0.2545614253300329,0.23732018213341144,0.475798620077569,0.11434136021142595,0.3276892572049518,0.953569714631635,0.44292037711723314,0.8319327659707494,0.5706214689265535,0.24708492852928046,0.46152530782857437,0.8785117316248177,0.5316827286279515,0.6462582316747736
0.021057004284305885,0.5307255416517366,0.026573461788374064,0.21177438899474502,0.08418212047379878,0.3157460960952803,0.012960829901132554,0.283441466775016,0.09171083682055539,0.466733752658163,0.037915673479323876,0.42593970113666174,0.13186982420401258,0.7845418269664903,0.04181294262732483,0.8069089787361164,0.38494163571599166,0.7955720502711552,0.3374778199153702,0.2289146077276336,0.22220839230580516,0.2185080268780926,0.24915204187329693,0.9425750548949356,0.37396666477644974,0.8338211618587186,0.47911456886172066,0.2305922567730975,0.18110052028047777,0.9003690883048502,0.5602293108554346,0.6943128647302762
0.030223168943514348,0.7010427090121524,0.06546235067726298,0.22319083680492433,0.049917547970413936,0.30470218495922496,0.06912716329012403,0.29764186734708364,0.14827586206896562,0.5171769769559306,0.06888284070064941,0.4064478883026317,0.15082534379696144,0.7388821266557671,0.05896740061343895,0.5783060708774895,0.589994185142088,0.7828906812607682,0.43144973377875223,0.22050903332185576,0.3976217207755226,0.051841360211425894,0.3212572042580781,0.991265690871747,0.5534442701036564,0.8848078508338844,0.401685653422247,0.26687613463670007,0.20472987661325473,0.940708912716194,0.4270119271271804,0.8283703412424737
0.023011894583352118,0.8601016951700995,0.20990679512170732,0.20361978341604553,0.10868113304825541,0.3236346040496054,0.027002413248380423,0.299219689632869,0.11034482758620698,0.476434372715426,0.00694850625799835,0.40227107126676803,0.05825120813123583,0.758450569646077,0.05553650901621612,0.5861976012318769,0.5258643824092524,0.9206398891345607,0.4148664548616848,0.2255523779653225,0.4699067857011188,0.15861219354475928,0.4306029889723212,0.2542721907286186,0.12454558090261121,0.9565668945767106,0.25386681485597845,0.2569805315829902,0.23623568505695736,0.8717884275562603,0.18278005695871435,0.7368377068510401
0.09819351920420885,0.6840109922761107,0.07657346178837411,0.23134544238362384,0.05445550687681521,0.3157460960952802,0.022143128466987117,0.2881749336323719,0.08070295628289302,0.49195536480704677,0.02464788830810488,0.41480152237435886,0.03901277033540712,0.8106330842869035,0.05553650901621612,0.5901433664090707,0.9271472419327221,0.7533008202365318,0.43697749341777475,0.30624589226078985,0.3918376137685592,0.14038302687809265,0.41302741092961776,0.06422164385138755,0.30460054984989615,0.9376829356970194,0.31347596554598506,0.25533126440737197,0.3034750666268415,0.5294535769416642,0.35865345262254755,0.5432840179844107
0.06458096815878608,0.6776240985000952,0.032129017343929624,0.23786912684658343,0.0723774617970452,0.29681367700489975,0.027002413248380423,0.2787079999176601,0.17446945751021062,0.47449424870397344,0.030967167221325528,0.42593970113666174,0.09958720741370158,0.7780190126363871,0.00965043133101752,0.6078993097064425,0.595341778502376,0.7363923282226823,0.3430055795543927,0.6690837226999169,0.21085563303085175,0.30232530645524075,0.3015921599713196,0.2558428564052899,0.2936220176092426,0.8583703084023169,0.31347596554598506,0.27842100486602817,0.17322406816955216,0.7580459152726116,0.2076737510638594,0.7217726550477063
0.07607894449971138,0.6286579128839757,0.03898209376718155,0.26722570692990166,0.21759214680188585,0.3015467817774949,0.04104399659562829,0.2439959096303835,0.2655172413793104,0.4337516444634688,0.032225621910880936,0.6962318091653549,0.08063168782075268,0.7541020267593416,0.010978853111113034,0.986189821879822,0.4801387651060677,0.6856668521811341,0.05556207832522359,0.9092001668146874,0.7365651961260972,0.23904405645524077,0.38025233711835343,0.11134161415152749,0.3320665620621938,0.6968180826606012,0.09196999166435096,0.3328468216614321,0.1862549263877714,0.8488237571125777,0.12211593508423307,0.8901548694566912
0.07327456002631497,0.707429602788168,0.032315427100514875,0.30799873482339907,0.1722125577378733,0.3157460960952803,0.036184711814234986,0.20770599705732154,0.3330901471653824,0.43181152045201626,0.08277985321664583,0.6767399963313249,0.047530258083812095,0.7671476554195481,0.009606496472223905,0.9585694656394658,0.22551969647792022,0.6391684991430482,0.22139486749589796,0.8688534096669537,0.403405827782486,0.8567708333333334,0.10494171710373475,0.04287917297312732,0.26311284972141036,0.3011047668107159,0.1342039455404277,0.3081078140271576,0.5546296786233169,0.782698030190655,0.390371877319751,0.7263492867672778
0.027643218380621826,0.7351061424842356,0.06120431598940379,0.2819039969715607,0.18582643445707714,0.27788125791451934,0.007020791673623934,0.20455035248575093,0.19794433559323793,0.476434372715426,0.05687351021898582,0.6837013580577641,0.093898901694095,0.9505267848409895,0.0666032318449163,0.970406761171047,0.45460904603943486,0.8699144130930125,0.1329507132715383,0.7797543209657084,0.403405827782486,0.0833333333333333,0.34092224854483644,0.014135991090041957,0.12701137295806725,0.336984288682129,0.08493099935167167,0.36418289799817977,0.3642279582230221,0.8779580747429926,0.27269652169312636,0.8018637101402105
0.03485449274078405,0.8750044473141358,0.14675987154495929,0.2884276814345203,0.36530569196530255,0.2589488388241388,0.036184711814234986,0.20770599705732154,0.3124004919929686,0.486134992772689,0.06888284070064941,0.6697786346048854,0.05825120813123583,0.8805799345639466,0.07620972831714021,0.9625152308166594,0.14346074389123237,0.8107346910445397,0.14564837253519483,0.7545375977483749,0.403405827782486,0.12784613978857404,0.3474772633070894,0.00942399406002796,0.3432925358543096,0.764800334627489,0.38760766879688807,0.9403874379158956,0.651486799915605,0.8824402774553641,0.2029159873592789,0.7057544440292053
0.03708205841799967,0.7265902841162147,0.1378709826560704,0.2998441292446996,0.3904943466558848,0.26841504836932906,0.09937183687685024,0.21086164162889215,0.4289788183518584,0.4822547447497838,0.04360572504776682,0.6614250005331583,0.0939288433561049,0.963572413501196,0.05836909201158153,0.940813522342094,0.1909643014711106,0.8031533706578474,0.14372175061458448,0.6975478032772011,0.21085563303085175,0.08523610798860896,0.15082682043950457,0.05008565276134556,0.38486271649994935,0.5314890651429471,0.3031397610447346,0.9535815753208421,0.5048342482390938,0.9631199262780517,0.18578803802278906,0.7469441295053504
0.014198114809820517,0.6861399568681159,0.22009320487829262,0.6539993674116995,0.22939680547863955,0.29365827382316967,0.028083166694495735,0.1793051959131861,0.6551724137931034,0.4415121405092793,0.12259671146302491,0.6572481834972946,0.05604774583221707,0.7845418269664903,0.1643836423657667,0.9368677571649003,0.14346074389123237,0.6624176756620912,0.8183929085103261,0.07447338923519174,0.20223744347191336,0.0833333333333333,0.42798098306742005,0.13961359633161144,0.1773417353403667,0.46728360495199744,0.20272297860516814,0.7804085218809206,0.6091161944024261,0.6672945472615313,0.2208421665953583,0.7404611793554449
0.03708205841799967,0.6925268506441316,0.33231542710051487,0.9412868398333637,0.3401170372747201,0.3204792008678754,0.027002413248380423,0.12881488276805644,0.4365384230274516,0.4221109003947533,0.2559334965319804,0.6419331876991283,0.1649712539409531,0.7193136836654572,0.22648278027549973,0.913193166101738,0.28696899134004455,0.7131431517036395,0.16749111706238123,0.48416108577280415,0.17530560110023077,0.0911458333333333,0.29294767896501184,0.010994659736699292,0.30460054984989615,0.24445289017164265,0.42117254792998066,0.8414314073787977,0.8368150848785616,0.6112670133568873,0.46173833288845856,0.7610560220935174
0.03067203676452217,0.7031716736041576,0.5400932048782926,0.854848020699149,0.14998252461661743,0.3378339183673908,0.08533025352960237,0.05150159076457667,0.4427719218001347,0.47061400068106823,0.5308221292570783,0.602949562031068,0.13350745009727177,0.6540855403644242,0.3249493691157947,0.8638711013868163,0.22551969647792022,0.7545414561180305,0.5033106090860445,0.5177833833959156,0.18665836037518407,0.153403860211426,0.019726525194447925,0.10505895144484212,0.3944218330306535,0.21423855596413693,0.17643789941650442,0.2602790659342269,0.2645561267846206,0.7065005840803392,0.14391971742248064,0.7515207612249222
0.01780375198990163,0.7302348550577825,0.28277777777777774,0.8010276238797325,0.4265681372017197,0.9511482813693471,0.23978767034932877,0.04045683476407955,0.5103448275862069,0.4958356128299521,0.5864317836934199,0.5695350257441595,0.13350745009727177,0.6540855403644242,0.34553471869913166,0.8342778625578635,0.2232667206254278,0.9079585201241739,0.18323713808054773,0.14485886366985512,0.3311207628568898,0.47289822312190744,0.4620670598311348,0.24013619963857658,0.2672454990382781,0.7431781592362013,0.20131518014263233,0.20915178349005958,0.42249061144472877,0.3028782298312839,0.10403643300682709,0.7011778123096337
0.01384572992414365,0.7594270011034129,0.22953764932273707,0.2819039969715607,0.24074170274464274,0.9464151765967521,0.2819124203910724,0.09252497019499452,0.23103448275862068,0.26302073145564037,0.1661997359642473,0.36607199028928367,0.093898901694095,0.59972875428023,0.10704381783335197,0.769424209552776,0.16186492932088334,0.6349413761395859,0.658087878978674,0.1818433910552776,0.18665836037518407,0.10416666666666664,0.22877001520262372,0.5764343033383785,0.5064303753258494,0.6676423237174369,0.7843845512642401,0.3064585468515393,0.7297301220416419,0.7199471922174537,0.3635750777327736,0.8819547652327149
0.025463894171071665,0.41789041827546114,0.4400932048782926,0.14979938659662886,0.3834575275909077,0.32047920086787535,0.1776260293426853,0.199816885628395,0.3999999999999999,0.2960028396503345,0.1819979332472989,0.23102157279636112,0.09955726575169167,0.6040772971669655,0.32314605359959603,0.6059264271178456,0.18871132561861814,0.62437356863093,0.6415046000616066,0.2070601142726112,0.24748293865634016,0.051841360211425894,0.14480434533809788,0.6235542736385183,0.2326036818335783,0.39363616532120227,0.23274983791794007,0.2817195392172648,0.6458227410246632,0.8174483381259773,0.058996269936798316,0.8110169735793539
0.04269082736479251,0.4562117809315547,0.4350932048782926,0.09108622642999252,0.567014982594784,0.19741847678040222,0.008101545119739248,0.956726849852231,0.5220822666277206,0.6565980499728905,0.5074407972781619,0.17811522367542235,0.093898901694095,0.6809171258633863,0.09670720818288993,0.47374329368185586,0.08788158152277478,0.4979275887883254,0.6083218543213765,0.2221901482030113,0.18665836037518407,0.18465386021142596,0.2116654959130767,0.21186421745849265,0.18723077393968704,0.2765556202671175,0.028155969250717817,0.33119755448581384,0.30075302062320947,0.7703852096460762,0.049398811824814516,0.8728015017935715
0.08094246527665527,0.9276152038718233,0.4350932048782926,0.18731057225864658,0.3358089590736941,0.08540166382898437,0.16709484183224954,0.825767600132051,0.4296418713033139,0.7962869787974773,0.6426733660210836,0.20317612589060385,0.05825120813123583,0.3780411138022559,0.026461800157409315,0.09213361688747346,0.16768755825697026,0.7482007716128368,0.1884966036906667,0.30624589226078985,0.35259168033006927,0.031008026878092655,0.1770468794885159,0.14432559336162543,0.2495035643909926,0.35209145578588186,0.014541076224877277,0.3064585468515393,0.2928765685122838,0.773733624765912,0.059078200639621097,0.9006432895404535
0.07728082355973843,0.7053006381961627,0.22898209376718154,0.1791559666799471,0.46060282899972926,0.19110767041694207,0.22677157105805285,0.8683688018482542,0.502055664406762,0.7585884884779653,0.25971966278682396,0.21431430465290677,0.06787042702915023,0.7309253690608449,0.13444701575234091,0.084242086533086,0.0982101621638465,0.7617550662434565,0.13847847291056078,0.3129703517854121,0.1535115015185911,0.09635416666666664,0.10494171710373475,0.21657621448850667,0.12207978884715513,0.4144085200888624,0.06992683152727618,0.33449608883705034,0.3604056359821383,0.6930539759432246,0.03972996157432701,0.9303913957176695
0.0026281920305579807,0.9531627789758857,0.18009320487829267,0.1856796511429067,0.19059427406885354,0.29523597541403473,0.3661619204745596,0.23137333134410107,0.28136600923434824,0.9573172717480429,0.43665947235700175,0.26304383673798193,0.07129538712571816,0.880950098653221,0.5015524166551827,0.4421771722643061,0.1040327910999334,0.922753450636292,0.03482488572584167,0.28102916904345626,0.18665836037518407,0.15909613978857406,0.05899513286027535,0.23699486828523394,0.3432925358543096,0.5144935021512251,0.1121607854033529,0.3410931575395236,0.32889982753843566,0.7378760030669398,0.04004714582129905,0.9441212908763843
0.6728278397046363,0.9552917435678908,0.10398209376718154,0.1856796511429067,0.11821681227180848,0.29208057223230466,0.33802348438992047,0.22348421991517456,0.10344827586206905,0.7827061107173091,0.2849967784397065,0.25051338563039116,0.12501990401087673,0.598294811015411,0.0027007784189846443,0.897410105392963,0.12505655846158137,0.9121856431276362,0.05556207832522359,0.27598582439998953,0.1987569967030179,0.04711697312190742,0.18360189425076875,0.218146880165178,0.11794713953028746,0.45217643784824463,0.07696582383995564,0.31800341708086743,0.1992857846059907,0.8095912464648841,0.055906358169900756,0.9025496079707874
0.3259336591778306,0.9169703809117974,0.038333333333333365,0.1938342567216062,0.18174823696142614,0.2037292831438624,0.41384803446505886,0.1982390633426097,0.09860738854469332,0.7613647465913307,0.4556173090966637,0.25469020266625475,0.1649712539409531,0.7222282832873738,0.0027007784189846443,0.7595597966097917,0.5701648929850406,0.899504274117249,0.1274229536325158,0.29952143273616755,0.1144810228190746,0.12215386021142595,0.019726525194447925,0.2511308593752759,0.36010993789456985,0.40307814476104775,0.07789200703899221,0.3394438903639053,0.1862549263877714,0.8544132735885992,0.052734515700180416,0.9048379238305733
0.11041662924468379,0.880777982847709,0.23212901734392954,0.20198886230030563,0.2904293700096815,0.2715704515510592,0.11406023000131721,0.62797326974255,0.17931034482758615,0.7730054906600462,0.5693643295346353,0.2769665601908605,0.540092499139325,0.8939957273134276,0.7314221536691116,0.4066652856695626,0.9011424872902907,0.7617550662434565,0.1661172711056732,0.25245021606381157,0.12657965914690847,0.18725802687809256,0.09826374052610277,0.2699788474953319,0.4816948436388007,0.4257388954166771,0.02158006853755673,0.3526380277688517,0.1862549263877714,0.9563966222094942,0.0749374129882228,0.9555628701753136
0.13070025836177454,0.9063255579517714,0.43768457289948504,0.18731057225864658,0.6557350619749839,0.29523597541403473,0.23276687867570484,0.9377929824228074,0.2482758620689657,0.7827061107173091,0.5377679349685321,0.25747474735683046,0.12356478250057604,0.7091826546271672,0.5461540074190794,0.5092551802765993,0.41686402640966985,0.8339838675635826,0.04256374922047315,0.2911158583303897,0.2588356979312936,0.1507996935447593,0.03926860766582728,0.24170686531524793,0.5212682449544126,0.4314040830805845,0.02158006853755673,0.35428729494447,0.08571433179536746,0.7961446383277695,0.0368753033515787,0.950986238455742
0.020031317667117274,0.8515858368020789,0.4710179062328184,0.17589412444846728,0.4876007017327619,0.22266170223424286,0.324037170432816,0.9567268498522312,0.17725468042082412,0.885532683324297,0.5061715404024288,0.27278974315499693,0.3655003764587355,0.7287510976174771,0.35745496957182427,0.6059264271178456,0.4385053400198562,0.874141536096475,0.06661759760326856,0.3146514666665677,0.22568883907470055,0.05444552687809256,0.02628153995670076,0.22914153990187733,0.17608728066472532,0.4181853118648007,0.02158006853755673,0.35593656212008834,0.4054056233564676,0.8051090437525126,0.01594114305142445,0.9372563432970269
0.06432465044527917,0.7372351070762407,0.4987956840105962,0.1840487300271668,0.22666806461468852,0.18164146087175184,0.2538292536965766,0.909392181278672,0.3137931034482757,0.899113551404465,0.398743798877678,0.2700051984644212,0.5498531771386793,0.7171394122220895,0.6353571889468728,0.5546314798143273,0.3587468668432406,0.7554143817382629,0.03345103976913364,0.32641927083465666,0.27714935074403774,0.028403860211425984,0.07872165805472342,0.21186421745849265,0.6944773309779116,0.3785289982174494,0.06381402241363346,0.37572776822750786,0.3113515187377671,0.8454488681638562,0.02958006567122192,0.9006432895404535
0.01660187292987459,0.8707465181301256,0.5432401284550407,0.22808360015214404,0.06126244523641725,0.2400164197337583,0.23978767034932877,0.21875075305781866,0.17931034482758615,0.899113551404465,0.133334084522411,0.2811433772267241,0.4880072579891475,0.5388491538659324,0.4706743922801774,0.2804007999993634,0.18111075640583768,0.8010398091561163,0.020452710664383204,0.286072513686923,0.1144810228190746,0.0596538602114259,0.09183168757922909,0.21029355178182133,0.43218928642804166,0.35209145578588186,0.12716495322774823,0.3608843636469432,0.17322406816955216,0.9788076357713519,0.03053161841213802,0.9097965529795968
0.03765887721418045,0.7010427090121524,0.4321290173439296,0.2574401802354622,0.2586636576648727,0.22897250859770304,0.21872529532845697,0.18877212962789794,0.27380640455875505,0.9146345434960859,0.14345033187665304,0.3075965517871935,0.7644150425193016,0.7675178195088226,0.46287121132415204,0.4875534718020339,0.13538513910265304,0.7578956535012602,0.08042080879472953,0.2776669392811451,0.2531593182938169,0.02343750000000002,0.03939156948120642,0.23228287125521999,0.5051931675685388,0.3804173941054185,0.07742891543947385,0.3526380277688517,0.23623568505695736,0.8118323478210698,0.028311328683333782,0.9349680274372412
0.032274542177891545,0.7351061424842354,0.1821290173439295,0.2982132081289597,0.14998252461661743,0.7271146554665114,0.13091013001801466,0.1761495513416155,0.2068965517241379,0.8622511951868657,0.044234952392544526,0.3187347305494964,0.5663723005034178,0.7657137121547293,0.07346501503936195,0.4461229374414999,0.2730232540577984,0.8285161086786216,0.031508229942428176,0.35163599405199014,0.17182515433133533,0.020833333333333353,0.01311002952450552,0.21186421745849265,0.6524208906885129,0.39363616532120227,0.04927294618875618,0.3773770354031261,0.2622974014933959,0.8207967532458129,0.016094465892750928,0.9189498164187402
0.013396862103135827,0.9254862392798182,0.11064876043384815,0.8352769673102702,0.08645109992699954,0.7823342111467879,0.5416817123151578,0.04237883523964878,0.37241379310344835,0.5035961088757623,0.20916543148105876,0.4008787989214802,0.6702332226223267,0.8744272843231176,0.40385987585191957,0.5210924758081806,0.2093684869007616,0.7892313657659618,0.037035989581450664,0.3381870750027456,0.2892479870718716,0.04142469354475933,0.11805174662824042,0.1631735814816814,0.34187312014436005,0.353979851673851,0.1623599147911455,0.9552308424964603,0.42579173470239284,0.9519144194971227,0.014672406063536314,0.8754718150828094
0.024262015111044626,0.9254862392798182,0.12657346178837403,0.742314463713096,0.12910194812706105,0.29208057223230466,0.14041583347247852,0.10672537076706225,0.21584876785503787,0.46091338062380527,0.13965336343563164,0.4203706117555102,0.552226390359426,0.8374646697858656,0.31259815936579255,0.5013636499222118,0.18336373225833005,0.7279380822157576,0.14122616482397685,0.9680391876551323,0.3976217207755226,0.07527886021142591,0.1967119237752744,0.13018960227158344,0.7035674347831875,0.32754230924228345,0.17643789941650442,0.9222454989840945,0.13720080914340024,0.9272623045790794,0.0417863898974857,0.852588656484951
0.024262015111044626,0.5371124354277522,0.20999999999999994,0.6022183398710387,0.2518567193052707,0.8769963065986903,0.21872529532845697,0.05307941305036197,0.1882625609584863,0.49777573684140464,0.3608281253983541,0.7045854432370819,0.4839032942056681,0.8244190411256589,0.2168762838032758,0.5210924758081806,0.18111075640583768,0.9142992046293673,0.16775941109128478,0.9495469239624211,0.33454734594104185,0.1351746935447593,0.15738183520175741,0.12390693956489812,0.2936220176092426,0.3332074969061908,0.17643789941650442,0.9107006287547663,0.23351363905332534,0.9048512910172217,0.04305512688537383,0.8342821296066643
0.01865324616425181,0.5818206918598614,0.7932401284550407,0.13357243937909774,0.1928632535220542,0.22108400064337783,0.38722429549543136,0.14774875019748004,0.4413793103448275,0.5656800772422454,0.32986635927011754,0.36607199028928367,0.3881937160131422,0.7504938120511548,0.18668443774771504,0.48360770662484015,0.18561670811082248,0.9121856431276362,0.19429265735859272,0.9680391876551323,0.347130755431566,0.12475802687809262,0.12460676139049325,0.10820028279818479,0.30176359546724685,0.34831466400994365,0.07742891543947385,0.9156484302816211,0.32889982753843566,0.9138156964419648,0.1363072954951518,0.8617419199240943
0.03485449274078405,0.8594883369276569,0.2805555555555555,0.17271454615685536,0.1747114178964491,0.22108400064337785,0.7417190056232963,0.09725843705235042,0.3124004919929686,0.7372471243519867,0.005690051568442943,0.5027059531703421,0.4899843857258625,0.8265933125690268,0.07753815009723576,0.620220101695104,0.30081972150713093,0.7976856117728864,0.4524390325009426,0.9562713834870432,0.618603726538127,0.07007052687809258,0.032713592903574444,0.06736297520473021,0.2383600711160309,0.32754230924228345,0.41835695100490894,0.9008050257010566,0.16355221147980928,0.8364844627391131,0.2844323388310916,0.822840550307735
0.01660187292987459,0.7849745762074751,0.09879568401059623,0.6808287376497019,0.12956170953781154,0.20057387996213233,0.26149685514741966,0.054657235336147275,0.1468832506136585,0.30376333569614494,0.1712497580017349,0.4022710712667681,0.3994505608043156,0.2872859478682815,0.5983914294144534,0.7218235550078423,0.13538513910265304,0.7934584887694242,0.7000826643291498,0.7814354358468641,0.6490574011575518,0.09350802687809259,0.05893365195258578,0.013960342197904914,0.3710059896180694,0.29921637092274683,0.8667407613225897,0.8595733463105989,0.3243823769559864,0.9429500140723797,0.44778222602168904,0.7724976013924466
0.031024421650199027,0.6733661693160848,0.44388888888888883,0.18731057225864658,0.1268329686738603,0.7397362681934317,0.8891556307693987,0.18246084048475672,0.23653842302745168,0.5365782170704566,0.1586166012683825,0.544378487007554,0.5805182106474095,0.8113734124654524,0.22408115615744378,0.2646177392905885,0.2071155110482692,0.5229226165478335,0.31922002520050075,0.7797543209657084,0.4396022239300275,0.14038302687809265,0.22293198282428575,0.006282662706685295,0.3769273399348301,0.3502030598979128,0.91460590904881,0.8826630867692552,0.1190155448178873,0.9698432303466088,0.4442931993049967,0.7290196000565157
0.02100876281664039,0.9850972478559635,0.25166666666666665,0.18731057225864658,0.06330154398424263,0.7886450175102481,0.3728040378694306,0.27713017763187475,0.1675729057860725,0.6759992900874164,0.4669974122335498,0.31455791351363277,0.3265175477853383,0.6352574255526631,0.48782885026629147,0.8066575063175074,0.550566232350789,0.7515549689960667,0.37283929369901886,0.2591746755884339,0.2588356979312936,0.11173719354475928,0.13116177615274607,0.07364563791141554,0.5324117382293743,0.2859975997069631,0.11895897008428279,0.2503834628805171,0.13720080914340024,0.8964405424743037,0.07810925545794314,0.8672717108588329
0.02140938916998273,0.8701331598876831,0.5321290173439296,0.20361978341604556,0.03857265070441086,0.14377662269099087,0.4995569622734142,0.5664382005969233,0.060013301110479214,0.4395720164978267,0.23255216455306407,0.3883483478138895,0.13350745009727177,0.774040633838926,0.19354622094216065,0.48755347180203396,0.35067126205466126,0.6184005943870026,0.39495033225510884,0.03777184574024529,0.34370417234741396,0.05753363978857409,0.2201870151040054,0.1678855785116954,0.3488839641024541,0.40685493653698607,0.1217745670093544,0.11844208883105305,0.23623568505695736,0.5832400094901224,0.23987322141368042,0.6966011805900619
0.01499936751650521,0.5243386478757209,0.25555555555555554,0.21992899457344453,0.05922334648859187,0.12326650200974533,0.5809428762973083,0.866790979562469,0.06206896551724123,0.21277151955901816,0.25971966278682396,0.3758178967062987,0.093898901694095,0.4518782961312217,0.12415434096067252,0.5270111235739712,0.7357079048858127,0.701702418574751,0.5441998425087158,0.23059572260878916,0.19013880714407952,0.023679473121907397,0.02628153995670076,0.8059271410245299,0.41253493000513214,0.6468699689497767,0.7273687135315366,0.07061334073812238,0.17322406816955216,0.7860729191393765,0.21132663918619735,0.41834197204010404
0.04499033948034539,0.5328545062437418,0.34120431598940376,0.19872702006882587,0.05899346578321662,0.7996889286463034,0.19517800852674513,0.1761495513416155,0.0572280781998657,0.9437364036678747,0.3039600162724573,0.36467971794399584,0.027190089138473962,0.6953966977884118,0.05896740061343895,0.5664687753459083,0.6559019281516171,0.7439736486093745,0.20534817663663762,0.2238712630841669,0.3040811931157204,0.03125000000000003,0.5544927679788996,0.8577591083546838,0.11381449021341977,0.8866962467218535,0.26888950634435493,0.19925618043634977,0.2256371869423997,0.7714925234097263,0.18278005695871427,0.5089592800876231
0.32112614293772257,0.6691082401320744,0.14879568401059615,0.26885662804564153,0.03857265070441086,0.8659523954626351,0.19766292030758517,0.2329511536298864,0.09860738854469332,0.7391872483634394,0.06256356178742876,0.3994865265761924,0.07692380952130494,0.8483360270027045,0.03495115943287918,0.5783060708774895,0.2578221156322374,0.7946991246509227,0.09065525807996873,0.2255523779653225,0.12657965914690847,0.18986219354475925,0.1311002952450565,0.617271610931833,0.08001472509859109,0.5314890651429472,0.5706214689265535,0.25862979875860853,0.23079159304969332,0.876270630268632,0.2877680427064575,0.7698272881032089
0.1401550403006539,0.8622306597621048,0.14879568401059615,0.21992899457344453,0.14044684539306412,0.3252123056404705,0.07685003413111036,0.299219689632869,0.636538423027452,0.3639071800511754,0.09541841104308713,0.41758606706493456,0.13186982420401258,0.7932389127399614,0.05896740061343895,0.6098721922950392,0.12505655846158137,0.7765499967555747,0.02072100469328673,0.23227683748994477,0.34916509724591716,0.09871636021142594,0.40647239616736475,0.18359223527840868,0.14929835950799067,0.8527051207384096,0.5213485227377974,0.19100984455825826,0.3113515187377671,0.8353771489754632,0.012134932087760042,0.8339001321772124
0.18718857418304527,0.6307868774759808,0.06546235067726298,0.25091649577250263,0.12910194812706105,0.26683734677846405,0.06982924245748642,0.2944862227755131,0.25722807819986565,0.5171769769559306,0.025277115652882588,0.4203706117555102,0.05604774583221707,0.9092156274170019,0.016811368826391834,0.5842247186432801,0.4486914099881883,0.7554143817382629,0.06661759760326856,0.27094247975652286,0.7285270288934389,0.033612193544759326,0.1750188941521505,0.1631735814816814,0.30869195890818674,0.7903880564354289,0.4228026303602852,0.25203273005613536,0.3113515187377671,0.7490815098478686,0.24653409060009307,0.6691413902726319
0.07557407214186783,0.8409410138420528,0.1321290173439296,0.260702022466942,0.29292823016825736,0.23843871814289327,0.18362133696033728,0.24557373191616877,0.17446945751021062,0.5035961088757624,0.030967167221325528,0.42454742879137386,0.05825120813123583,0.7519277553159738,0.08641453339122146,0.6157908400608298,0.35067126205466126,0.7068024671984459,0.1716450307446956,0.23732018213341144,0.45770042200379824,0.046633026878092614,0.4699330775458381,0.24484819666859062,0.20456030600120226,0.7790576811076143,0.31721774567009353,0.2289429895974792,0.46140955128694966,0.9115745950857791,0.49044877652158714,0.6233750730769152
0.021057004284305885,0.8366830846580424,0.12101790623281847,0.23460728461510363,0.15406072211226796,0.2621042420058689,0.11341342022409795,0.25188502105931,0.4117374390415138,0.4686738766696156,0.08909913212986648,0.41201697768378315,0.03901277033540712,0.7214879551088251,0.11729255776622687,0.5921162489976676,0.22908934956151467,0.7406194512261447,0.23245038677394295,0.25245021606381157,0.2348456654810727,0.11694552687809262,0.2588616022012971,0.9598523773383203,0.30869195890818674,0.8980266220496683,0.42984162267296466,0.26192833310984515,0.5819886930544963,0.88468137881155,0.6649001123562058,0.7904221308412814
0.032274542177891545,0.6009813731879081,0.06546235067726298,0.25417833800398243,0.5806288593139879,0.2810366610962494,0.021062375020871802,0.2960640450612984,0.479310344827586,0.5094164809101203,0.019587064084439644,0.4203706117555102,0.09106971966529662,0.9244355275205763,0.024658484641210714,0.5980348967634581,0.1295625101665661,0.7913449272676929,0.2656169446080779,0.2255523779653225,0.4699067857011188,0.2002788602114259,0.18360189425076875,0.9472870519249497,0.2103166952836549,0.8678122878421625,0.5635824766138742,0.2371893254755707,0.7389965362897897,0.8118323478210698,0.6046351054315193,0.7927104467010672
0.019855125224278847,0.6712372047240797,0.14879568401059615,0.20525070453178546,0.4583338495465288,0.28734746745970957,0.057247086835106785,0.2960640450612984,0.7875995080070309,0.46091338062380527,0.032225621910880936,0.41619379471964674,0.061676168227803765,0.917912713190473,0.06239829221066177,0.5960620141748614,0.22101374477293537,0.7702093122503811,0.4148664548616848,0.262536905350745,0.24748293865634016,0.051841360211425894,0.20326693853752725,0.22914153990187733,0.3878233916583297,0.8187139947549655,0.20459386866722223,0.25533126440737197,0.5773554859304224,0.5787578067777509,0.2779353310503245,0.8846250785219527
0.012018790600270361,0.7287192487082199,0.10990679512170747,0.1824178089114269,0.4994053604095154,0.29208057223230466,0.05022629516148285,0.29764186734708364,0.4586206896551724,0.4492726365550896,0.013267785171218996,0.4008787989214802,0.08258217357890159,0.8019359985134324,0.045243834224547655,0.5743603057002958,0.16186492932088334,0.9185263276328297,0.42039421450070724,0.25581244582612267,0.17530560110023077,0.10392469354475928,0.32703375572872656,0.25427219072861856,0.15505474879044326,0.9018034138256065,0.12012596091506879,0.2685254018123184,0.4118921133301712,0.5989277189834227,0.1764363720192736,0.7583857088042797
0.012243224510774267,0.652076523396033,0.11546235067726303,0.20361978341604553,0.47398682501355804,0.30627988655009003,0.08106250913528472,0.3023753342044396,0.3220822666277206,0.5598597052078876,0.10553465839732916,0.4008787989214802,0.11458187216633274,0.7671476554195481,0.05896740061343895,0.570414540523102,0.18871132561861814,0.7702093122503811,0.4535607723348422,0.3028836624984787,0.13867829547474236,0.0596538602114259,0.4916875880766516,0.0877816290014575,0.3390774060202878,0.8848078508338845,0.05677503010095385,0.24378639417804387,0.4661585149526483,0.6930539759432246,0.04051765290959756,0.6943128647302762
0.01660187292987459,0.6478185942120224,0.05990679512170743,0.21177438899474502,0.5765506618183369,0.30627988655009003,0.072637559126936,0.2976418673470837,0.4606763540619342,0.5171769769559306,0.07520211961387005,0.4148015223743588,0.09958720741370158,0.7780190126363871,0.012351209750002163,0.5901433664090707,0.15961195346839097,0.7237109592122953,0.38169989702755,0.34827376428967904,0.17530560110023077,0.2580544731219074,0.4982426028389044,0.14903759039163944,0.18723077393968704,0.8734774755060697,0.276873205520052,0.2817195392172648,0.8811781167280465,0.8757169733868069,0.20894248805174756,0.8750898176533575
0.01865324616425181,0.6989137444201472,0.05833333333333338,0.24765465354102284,0.16790447953684703,0.30785758814095504,0.008101545119739248,0.23452897591567168,0.3034482758620688,0.4027096602802274,0.032225621910880936,0.6781322686766127,0.05604774583221707,0.7954131841833291,0.012395144608795778,0.9625152308166594,0.22101374477293537,0.6835532906794028,0.07573030705460808,0.8974323626465983,0.11796146958797,0.1486794731219074,0.09183168757922909,0.23228287125521999,0.11381449021341977,0.32187712157837617,0.09196999166435096,0.3147048827296308,0.44611996777750573,0.8040017299888625,0.25112799289902804,0.8224585528782832
0.026841965673937138,0.9872262124479689,0.24231542710051482,0.9918453944213005,0.3537309139939239,0.32521230564047043,0.021062375020871802,0.16668261762690373,0.2896551724137931,0.3774880481313436,0.07646057430342518,0.6419331876991283,0.05825120813123583,0.7693219268629159,0.06523087520602718,0.9171389312789319,0.16186492932088334,0.7215973977105642,0.05830977023863965,0.8133766185888198,0.32539051953466974,0.06746636021142591,0.03933008857351685,0.07523488591255675,0.23134922715793696,0.22745732717992068,0.04223395387607673,0.6465127328423736,0.6013324064339819,0.8986816438304894,0.3037805778963857,0.8567832907750708
0.03382880612359544,0.8686175535381204,0.1200932048782926,0.6654158152218789,0.4174922193889171,0.32521230564047043,0.028083166694495735,0.1540600393406213,0.40205566440676216,0.466733752658163,0.05118345865054288,0.6488945494255676,0.05714947698172645,0.7345335837690317,0.05974144865047066,0.928976226810513,0.25556913977974505,0.8699144130930125,0.15506175182762824,0.7797543209657084,0.17530560110023077,0.051841360211425894,0.5900128095104441,0.14483395771356664,0.2879481088439439,0.4502880419602755,0.09150690006483275,0.37572776822750786,0.5773554859304224,0.8689936693182496,0.31266173681160264,0.8224585528782832
0.08435596811239644,0.7265902841162147,0.20675987154495928,0.32104610374931825,0.6080864934577708,0.3157460960952802,0.014041583347247867,0.1714160844842596,0.3537798023377966,0.45509300858944746,0.044234952392544526,0.6558559111520068,0.05233986753276929,0.7301850408822961,0.07346501503936195,0.9388406397534972,0.1909643014711106,0.8593466055843567,0.08125806669363056,0.7982465846584198,0.1987569967030179,0.17423719354475928,0.2884821304468139,0.02827198218008395,0.173209086023499,0.4880559597196577,0.3524127072334908,0.9321411020378042,0.3604056359821383,0.8824402774553641,0.20133006612441873,0.7057544440292053
0.08631085841144269,0.7457509654442614,0.1845376493227371,0.309629655939139,0.7126894290103751,0.2715704515510592,0.012960829901132554,0.19666124105682442,0.33448275862068955,0.47061400068106823,0.14345033187665304,0.6600327281878705,0.046428526934302675,0.9483525133976216,0.13007472639353845,0.9447592875192876,0.07980597673419548,0.8242889856751593,0.18987044964737465,0.7091474959571745,0.18665836037518407,0.23673719354475928,0.2557070566355499,0.08464029764811484,0.19095102067078448,0.983004437008278,0.324256737982773,0.9436859722671322,0.35496154397487434,0.7983857396839552,0.15787582428925012,0.7263492867672778
0.0026281920305579807,0.7414930362602511,0.24009320487829258,0.32593886709653797,0.666850078535612,0.27472585473278927,0.028083166694495735,0.1793051959131861,0.17586206896551737,0.4647936286467105,0.15356117813780606,0.654463638806719,0.05604774583221707,0.8762313916772109,0.1743332279977129,0.9270033442219159,0.16186492932088334,0.6222600071291987,0.9289481012907758,0.17680004641181093,0.2588356979312936,0.1898621935447593,0.20576598262704915,0.1631735814816814,0.12207978884715513,0.5182702939271634,0.3894970825229232,0.8727674837155454,0.13720080914340024,0.8062428313450484,0.17960821448899394,0.851253499840332
0.9494844574213586,0.7053006381961627,0.39898209376718147,0.9559651298750228,0.25435557946384657,0.3189014992770104,0.021062375020871802,0.11619230448177402,0.12897881835185857,0.45897325661235266,0.34440340131706937,0.6071263790669316,0.0699107377733289,0.7171394122220895,0.255988448011616,0.8678168665640101,0.18871132561861814,0.7989262476543851,0.2766724638861228,0.14317774878869952,0.2588356979312936,0.028403860211425984,0.4227369712576178,0.020243004904590245,0.06928363440939961,0.35209145578588186,0.6253033249976847,0.8331850715007061,0.2020078306096227,0.642642432343488,0.30544842983406867,0.5802790691704361
0.39323888653934475,0.7180744257481939,0.5112043159894037,0.8238605195000909,0.16790447953684728,0.3236346040496054,0.17660054528671335,0.04045683476407955,0.09515911268262435,0.4725541246925208,0.49480223945172064,0.5904191109234774,0.1609804574386255,0.6780025262414696,0.3249493691157947,0.8362507451464605,0.22101374477293537,0.554626039073801,0.12934957555312607,0.6990608066702412,0.21085563303085175,0.12215386021142595,0.2667276199160005,0.08621096332478617,0.20456030600120226,0.21423855596413693,0.12012596091506879,0.25038346288051705,0.32889982753843566,0.7440456502536722,0.2527139141338882,0.7812688674021381
0.12401797709328863,0.6605923817640535,0.37777777777777777,0.7553618326390151,0.22689794532006377,0.3315231120039306,0.23276687867570484,0.03256772333515303,0.11034482758620698,0.4415121405092792,0.5004895904736192,0.6182645578292346,0.3171812470903038,0.608425840053701,0.2920128097824556,0.8638711013868163,0.8872442535656243,0.8475381621942022,0.20755928049224667,0.13981551902638842,0.24748293865634016,0.1796875,0.21887601215155483,0.18673356663175134,0.5418883742429246,0.8319327659707494,0.3986477725294065,0.27842100486602817,0.17096534287832757,0.31273907579850124,0.18777307420744405,0.710331075748777
0.061095518884707656,0.7381373551833609,0.3088888888888888,0.1856796511429067,0.3401170372747201,0.9464151765967521,0.21872529532845697,0.09568061476656511,0.19655172413793118,0.17474508893454727,0.05687351021898582,0.28810473895316346,0.5805182106474095,0.6258200116006433,0.08165522001390316,0.5526585972257303,0.6240745445730987,0.8559924082011271,0.39828317594461743,0.17343781664949975,0.24748293865634016,0.2700336397885741,0.17370789119969984,0.9111617413615091,0.8565601706447796,0.6903030743730663,0.7189219227563213,0.27677173769040986,0.3715832113507281,0.8695473262000746,0.35723139279333294,0.8705131859337857
0.045094585484846586,0.35827940969931565,0.4150932048782926,0.05520596188371471,0.8420212578428116,0.2778812579145193,0.17584319672920776,0.596416824026844,0.32413793103448263,0.39106891621151174,0.3292371319253398,0.22127566637934606,0.5216728742901259,0.6714797119113664,0.37117853596071554,0.5329297713397617,0.25556913977974505,0.76809575074865,0.38169989702755,0.21042234403492233,0.17530560110023077,0.10652886021142594,0.07866017714703384,0.2652668504653179,0.26557864177686646,0.39552456120917134,0.11308696860238933,0.2833688063928831,0.1347684490397386,0.9227801018667079,0.057011233752143335,0.8041520259999965
0.06472527679862151,0.5243386478757209,0.5000932048782927,0.1253355698605304,0.39253344540371016,0.02997633022643578,0.008101545119739248,0.8541684012761865,0.14827586206896562,0.6014985280476367,0.6148685388029128,0.14177691546340918,0.6210054553212355,0.5261089990956009,0.16875593172456912,0.36720763389762534,0.38062569824132647,0.7156244234666366,0.17246610073750143,0.21378457379723348,0.1144810228190746,0.18465386021142596,0.17626841619691147,0.26683751614198925,0.484573038280027,0.2104617641881987,0.19051588404186334,0.27842100486602817,0.4198264437119091,0.8561007180629601,0.0749374129882228,0.950986238455742
0.04046326168757687,0.843069978434058,0.23398209376718154,0.16284675552254807,0.11821681227180848,0.07120234951119898,0.3232798218753103,0.8068337327026274,0.22964187130331373,0.9204549155304437,0.3728401564265622,0.22962930045107324,0.951141056419992,0.5743778251383655,0.08581622478936411,0.03703600850587164,0.28114636240395763,0.6585582629198948,0.24791192585711078,0.26589913511305613,0.24400249188744474,0.057049693544759285,0.10488023619604518,0.15217892174498207,0.43218928642804166,0.4049665406490168,0.09854589237751221,0.3081078140271576,0.19187265320747246,0.7109827867927107,0.030214434165165987,0.9221912914936929
0.032274542177891545,0.9020676287677609,0.14675987154495929,0.1856796511429067,0.1542906028176432,0.27945895950538435,0.4433906288844227,0.28501928906080126,0.12897881835185857,0.94761665169078,0.4556173090966637,0.2198833940340582,0.4374198334725114,0.8831243700965888,0.2785444628356994,0.22141161060031728,0.2416709060550788,0.7363923282226823,0.13847847291056065,0.3230570410723455,0.20223744347191336,0.06274197312190744,0.15082682043950457,0.199298892045122,0.32084058827007805,0.47294879261590483,0.11497638232842469,0.3410931575395236,0.17322406816955216,0.7199471922174537,0.059078200639621097,0.9061730804751922
0.026665773231098703,0.8935517703997401,0.06787098265607046,0.19220333560586628,0.1520216233644427,0.9306381606881018,0.19868840436355711,0.21401728620046273,0.22068965517241376,0.9650777677938533,0.48721370366276695,0.2853201942625877,0.8719239596136384,0.8570331127761756,0.2830046219120891,0.5033365325108088,0.18871132561861814,0.7469601357313381,0.050034318686201104,0.28271028392461184,0.24400249188744474,0.09920030645524068,0.03933008857351685,0.2401361996385766,0.4717473178625726,0.4823907720557503,0.12060757617856825,0.3724292338762712,0.17322406816955216,0.8588954763009709,0.04321898829101939,0.9143731846991686
0.02060813646329805,0.923357274687813,0.02222222222222224,0.1840487300271668,0.19944031117628097,0.26841504836932906,0.4987996137159084,0.22506204220095988,0.2703581286966863,0.7710653666485936,0.3608281253983543,0.25469020266625475,0.8538770779533488,0.5302401148379998,0.0027007784189846443,0.897410105392963,0.0982101621638465,0.7892313657659618,0.01686776085206618,0.32978150059696776,0.24748293865634016,0.049721139788574086,0.09838670234148192,0.20244022339846468,0.4816948436388007,0.40307814476104775,0.03519496156339728,0.35428729494447,0.16870661758710298,0.9210926573923471,0.02958006567122192,0.9336328707926222
0.023460762404359937,0.9361310622398441,0.09879568401059635,0.20361978341604553,0.14521468500484078,0.1690198481448315,0.34083180105937005,0.25504066563088057,0.2655172413793104,0.7865863587402144,0.46193658800988435,0.282535649572012,0.8747531416424368,0.8222447696822912,0.33446799587043136,0.5585772449915208,0.16186492932088334,0.9164127661310985,0.07767311688131354,0.3331437303592789,0.8604516710358372,0.19767469354475925,0.12460676139049325,0.19144556366176535,0.26557864177686646,0.37286381055354206,0.12716495322774823,0.3608843636469432,0.1992857846059907,0.8364844627391133,0.059078200639621097,0.9281030798578835
0.023636954847198376,0.899938664175756,0.25990679512170733,0.21666715234196474,0.15406072211226796,0.22108400064337785,0.1906421286339612,0.9583046721380164,0.22068965517241376,0.8118079708890982,0.5504064927949734,0.2713974708097091,0.5499646945781093,0.7635394407113614,0.6147718393635357,0.47374329368185586,0.0982101621638465,0.8348567931838151,0.1274229536325158,0.28102916904345626,0.3196602762124497,0.17163302687809268,0.026158578141321612,0.2401361996385766,0.2767221350518282,0.4011897488730787,0.1342039455404277,0.3724292338762712,0.19413137849869705,0.9519144194971227,0.07176557051850246,0.9120848688393827
0.01304447721745897,0.9701944957119273,0.365462350677263,0.18731057225864658,0.08645109992699954,0.2715704515510592,0.4574322122316706,0.9772385395674399,0.1779177333722794,0.827328962980719,0.43665947235700175,0.29367382833431493,0.417615559270923,0.6613486828730764,0.3403005115857101,0.5250382409853742,0.35067126205466126,0.7980533220341526,0.11911512626788688,0.286072513686923,0.6024860065939641,0.11434136021142595,0.03926860766582728,0.2432775309919193,0.2879481088439439,0.4144085200888624,0.042697045475595094,0.36253363082256146,0.23623568505695736,0.8320022600267417,0.019747354015088862,0.9555628701753136
0.026665773231098703,0.9787103540799481,0.4043512395661518,0.17752504556420717,0.1268329686738603,0.22581710541597294,0.2819124203910724,0.6453293148861884,0.2641246299240036,0.8758320632670339,0.3861052410512367,0.29367382833431493,0.49804920434965966,0.767887983598097,0.4157801267246122,0.5980348967634581,0.22101374477293537,0.7744364352538435,0.1605895114666506,0.2776669392811451,0.4337103895535773,0.05704969354475923,0.03283655471895359,0.2511308593752759,0.39012422267947766,0.4314040830805845,0.028619060850236185,0.35098876059323336,0.2955986145159158,0.8185556518896271,0.06542188557906178,0.9359211866524081
0.03245073462072997,0.9531627789758857,0.4987956840105962,0.19709609895308597,0.050147428675789064,0.23843871814289327,0.05508557994287616,0.9425264492801634,0.1779177333722794,0.8603110711754131,0.2976353362661478,0.25747474735683046,0.35984201240113883,0.562766139742978,0.0027007784189846443,0.49741788474501825,0.2578221156322374,0.8581059697028582,0.14400623254958314,0.27598582439998953,0.6151232797692316,0.06746636021142591,0.03939156948120642,0.2589841877586326,0.1938292153120108,0.4181853118648007,0.056775030100954006,0.3608843636469432,0.24364881645547562,0.9743254330589805,0.059078200639621097,0.9303913957176694
0.014021922366982078,0.7393640716682458,0.47657346178837395,0.24765465354102284,0.08145337960984775,0.1690198481448315,0.324037170432816,0.23137333134410104,0.12897881835185857,0.908814171461728,0.14218377554746442,0.32291154758536,0.4071192939440811,0.4801438248950026,0.36916393586117546,0.3238042169484943,0.3111007985906227,0.9206398891345607,0.02956542011572271,0.29784031785501197,0.609446900131755,0.06746636021142591,0.01311002952450552,0.227570874225206,0.5501364259583291,0.3860825817693258,0.042697045475595094,0.3526380277688517,0.13720080914340024,0.8364844627391131,0.023154450028958457,0.9418329750165985
0.0168263068403785,0.6989137444201472,0.365462350677263,0.27701123362434105,0.10437305484722939,0.8643746938717699,0.11686854667076678,0.26766324391716295,0.12758620689655162,0.8525505751296026,0.07646327484996983,0.2839279219172999,0.13350745009727177,0.7044639476511573,0.2062405198518851,0.5171467106309868,0.3111007985906227,0.8614601670860879,0.07599860108351154,0.31969481131003435,1.0,0.01538302687809264,0.04594658424345926,0.21500554881183534,0.31499309501130607,0.3747522064415112,0.04973603778827455,0.3724292338762712,0.17096534287832757,0.8320022600267417,0.030214434165165987,0.9097965529795968
0.02701815811677557,0.7457509654442614,0.12657346178837403,0.6360592351385608,0.06783950289064392,0.746047074556892,0.20219880020036907,0.10514754848127694,0.13103448275862078,0.8059875988547405,0.038544900824101586,0.33404972634766283,0.11939148161528994,0.6983112974103284,0.2542730022130046,0.5132009454537931,0.8630174391998865,0.8487787980757007,0.038409835538158695,0.3331437303592789,0.2714729711065611,0.005208333333333338,0.12460676139049325,0.18987489798509402,0.8264461584243871,0.34831466400994365,0.1342039455404277,0.382324836929981,0.129787677744882,0.9698432303466088,0.017363202880639066,0.8869133943817386
0.03467830029794561,0.9467758851998701,0.14231542710051484,0.8858355218982071,0.10664203430043004,0.20846238791645752,0.5908272540305252,0.035278634953614926,0.07931034482758627,0.3619670560397228,0.1712497580017349,0.4092324329932074,0.11744099585714103,0.7070083831837994,0.42581758207414566,0.5210924758081806,0.532162046921138,0.7617550662434565,0.0942402078922857,0.6808515268680059,0.25663976506271224,0.031008026878092655,0.05905661376796492,0.17416824121838068,0.14929835950799067,0.34831466400994365,0.0849309993516715,0.9502830409696056,0.23079159304969332,0.9474322167847513,0.026561546042828055,0.8846250785219526
0.15847184348073035,0.8345541200660372,0.05009320487829267,0.7243743314399571,0.0637613053949929,0.5537732583936291,0.17060523766906144,0.09725843705235042,0.08070295628289302,0.4201707763833007,0.08909913212986648,0.42454742879137386,0.05604774583221707,0.7544721908486159,0.3163721401227376,0.47966194144764646,0.6374977427219662,0.7744364352538434,0.1544927879576308,0.9915747959913103,0.3196602762124497,0.0596538602114259,0.11805174662824042,0.1380429306549401,0.20743850064242858,0.3388726845700981,0.09900898397703042,0.920596231808476,0.1862549263877714,0.9384678113600082,0.054473759776367064,0.8365704454664501
0.4547109110435619,0.47111453307559104,0.21222222222222223,0.580363996920124,0.05922334648859187,0.8328206620544691,0.2819124203910724,0.04834594619300606,0.3137931034482757,0.7488878684207024,0.4429787512702225,0.5555166657698569,0.093898901694095,0.7696920909521904,0.20452507405327364,0.4914992369792276,0.41197804624404594,0.7871178042642306,0.2363036306151635,0.9478658090812654,0.24748293865634016,0.1013205268780926,0.20982195329978007,0.10662961712151346,0.15217655414921696,0.32376551746634524,0.12012596091506879,0.925544033335331,0.3988612551119518,0.9205390005105222,0.09665926462364757,0.8434353930458076
0.3443142299639131,0.745137607201819,0.8210179062328185,0.08236151634486491,0.16359640133582126,0.18164146087175184,0.3398063170033982,0.13828181648276827,0.6241379310344827,0.9456765276793272,0.2369729592457741,0.38417153077802585,0.05714947698172645,0.711356926070535,0.26147787456717253,0.572387423111699,0.19903990625968987,0.8019127347763488,0.2766562759800277,0.9545902686058877,0.14141286519075724,0.09090386021142592,0.06561162853021775,0.10191762009149946,0.1633200474241787,0.33509589279415986,0.09456330462165427,0.9238947661597127,0.4800465901252983,0.847689969520042,0.1794443530833484,0.8342821296066643
0.24816390516175024,0.825424903455574,0.17833333333333337,0.42403949009237374,0.2405118220392675,0.23212791177943312,0.6771277222259562,0.1035697261954916,0.133090147165383,0.44345226452073194,0.005690051568442943,0.48599868502688776,0.03680930803638828,0.7157054689572705,0.04563085824306355,0.6646099599385334,0.16186492932088334,0.8686737772115138,0.5530442579311518,0.9411413495566432,0.6851460699356066,0.04923719354475922,0.013048548616815947,0.05636831546803089,0.14929835950799067,0.2727788284911793,0.557728998795962,0.8942079569985834,0.46933233546911607,0.8521721722324135,0.3405739505451416,0.7862274965511615
0.048700222664927705,0.7089452091377306,0.3405555555555556,0.5055855458793687,0.2586636576648727,0.1753306545082917,0.3345130885531085,0.16826043991268902,0.2068965517241379,0.385248544177154,0.16493317963505874,0.37860244139687443,0.05825120813123583,0.49536372499857706,0.4728207969560983,0.4934721195678245,0.3088953262957102,0.7765499967555747,0.7597824684305926,0.6684645158332096,0.21085563303085175,0.1013205268780926,0.12460676139049325,0.010994659736699292,0.3769273399348301,0.3011047668107159,0.9117903121237382,0.871118216539927,0.5773554859304224,0.8521721722324135,0.48647870415227723,0.738172863495659
0.04464571766383878,0.6478185942120224,0.30833333333333335,0.20525070453178543,0.21759214680188585,0.8359760652361992,0.6062177263223545,0.24557373191616877,0.2620689655172414,0.7904666067631198,0.3014323047071691,0.3674642626345715,0.11653235792448165,0.7845418269664903,0.13144708303242764,0.2902652129423477,0.2846685119299723,0.39885655639621326,0.11636743435447083,0.29784031785501197,0.34916509724591716,0.11694552687809262,0.19015690901302157,0.017277322443384622,0.27676337531040524,0.353979851673851,0.6731684727239049,0.8513270104325075,0.8719695807507108,0.9054049478990468,0.3637284005741001,0.7267312841967297
0.019005631049928667,0.9340020976478389,0.2932401284550407,0.1661085977540279,0.2700085549308758,0.8848848145530155,0.20992167104135548,0.2534628433450953,0.8620689655172413,0.7283826383966365,0.3646250938393754,0.32430381993064783,0.11263138640818383,0.8005020552486135,0.4775361754746229,0.9210846964561255,0.2232667206254278,0.7578956535012602,0.4170613708111987,0.22387126308416688,0.3617485067364413,0.062258026878092565,0.22948699758653857,0.06893364088140155,0.39713506663757164,0.3332074969061908,0.12012596091506879,0.22729372242186086,0.7482629505379376,0.755804813916426,0.10665583768542615,0.8695600267186188
0.021057004284305885,0.8637462661116675,0.44879568401059616,0.21503623122622484,0.15406072211226796,0.1579759370087762,0.2889332120646963,0.5837942457405616,0.47241379310344805,0.3289849478450287,0.13965606398217614,0.3799947137421623,0.0939587850181148,0.7693219268629159,0.16884380144215635,0.46782464591606526,0.2846685119299723,0.6289684018956584,0.42148357852241675,0.04651364312225422,0.3196602762124497,0.05492947312190743,0.10684674062472103,0.20244022339846468,0.2103166952836549,0.6628269566771572,0.11262387700287112,0.10689721860172494,0.4846682510498007,0.661678556956624,0.28427901598976507,0.5867620193203417
0.035030685183622484,0.38382698480337796,0.26509320487829263,0.21829807345770463,0.41999107954749304,0.2621042420058689,0.41384803446505897,0.5822164234547763,0.5999999999999999,0.3018232116846923,0.2028461525678381,0.373033352015723,0.0939288433561049,0.6149486543838044,0.11729255776622687,0.5309568887511649,0.23134232541400707,0.7046889056967146,0.48615836629897974,0.2238712630841669,0.1144810228190746,0.01065863978857405,0.02628153995670076,0.7760844931677746,0.1703308913822727,0.6544235525016531,0.6365657126979718,0.08380747814306876,0.2877221624049902,0.7300453852347325,0.2684198036411634,0.45106488883504153
0.02003131766711727,0.6201420545159548,0.08555555555555557,0.19709609895308597,0.12910194812706105,0.8533307827357147,0.10741811260644604,0.18877212962789788,0.23793103448275862,0.5773208213109611,0.2382395155749626,0.36607199028928367,0.09958720741370158,0.8544886772435333,0.04768939320139724,0.5625230101687146,0.11745598924880082,0.7325329154804862,0.2363036306151635,0.2289146077276336,0.10312826354412122,0.059653860211425956,0.3860288885890019,0.8844604248580965,0.3488839641024541,0.9660088740165561,0.29704547559507277,0.19265911173387656,0.5866219001785701,0.800626841040141,0.2430450638834007,0.4906527532093365
0.0326269270635684,0.707429602788168,0.08212901734392968,0.26885662804564153,0.14067672609843937,0.32836770882220057,0.036184711814234986,0.2708188884887336,0.34137931034482766,0.5171769769559306,0.09479188424485406,0.42454742879137386,0.05825120813123583,0.8544886772435333,0.012395144608795778,0.5901433664090707,0.2232667206254278,0.7554143817382629,0.01686776085206618,0.21714680355954463,0.17530560110023077,0.21329969354475925,0.2622620713978026,0.6094182825484764,0.42635041662843504,0.5333774610309163,0.6198944151153097,0.27347320333917324,0.707085285404492,0.8493774139944028,0.012134932087760042,0.7744039198227805
0.020832570373801967,0.9701944957119273,0.12657346178837403,0.25254741688824256,0.4265681372017197,0.33310081359479565,0.062106371616500095,0.26608542163137766,0.32413793103448263,0.4609133806238052,0.00694850625799835,0.7045854432370819,0.05604774583221707,0.7541020267593416,0.05896740061343895,0.9743525263482407,0.41686402640966985,0.7723228737521123,0.044506559047178616,0.19865453986683335,0.14435467511221903,0.09611219354475926,0.3736973223561006,0.17730957257172336,0.20743850064242858,0.7752808893316762,0.5213485227377974,0.18111424150454844,0.4800465901252983,0.7412508920156613,0.012134932087760042,0.8293235004576407
0.031649481914045284,0.6669792755400693,0.049444444444444485,0.2884276814345203,0.2609326371180733,0.25579343564240875,0.04914554171536754,0.25346284334509533,0.1675729057860725,0.4841948687612364,0.025277115652882588,0.5652625721868719,0.05604774583221707,0.9461782419542539,0.011321942270835317,0.6157908400608298,0.237164954350094,0.7279380822157576,0.06025258006534511,0.2608557904695894,0.21085563303085175,0.026041666666666692,0.30081369667971525,0.15846158445166744,0.26557864177686646,0.7658389098918305,0.4931925534870796,0.2305922567730975,0.4067377072228775,0.7535637125602402,0.26873698788813544,0.5913386510399133
0.050703354431639425,0.8622306597621048,0.08768457289948522,0.2949513658974799,0.5218652742361465,0.2778812579145193,0.16255896193946548,0.21243946391467744,0.3931034482758622,0.4492726365550896,0.05118345865054288,0.4287242458272374,0.05825120813123583,0.7388821266557671,0.03495115943287918,0.613817957472233,0.22101374477293537,0.7152567132053707,0.18270055002274055,0.2423635267768781,0.24748293865634016,0.02343750000000002,0.5492487561690974,0.2794028415553599,0.2565144083490867,0.7809460769955834,0.31017875335741407,0.24213712700242557,0.6365563267765154,0.8981279869486645,0.5729166807343159,0.6737180219922037
0.16771813341060726,0.6882689214601212,0.07101790623281855,0.24276189019380315,0.2518567193052707,0.27472585473278927,0.057247086835106785,0.2629297770598071,0.46206896551724114,0.4841948687612364,0.04486417973732223,0.4259397011366617,0.07582207837179551,0.7454049409858705,0.06582918380788459,0.5960620141748613,0.14120776803873997,0.7892313657659618,0.22692262713492045,0.22723349284647806,0.24748293865634016,0.10392469354475928,0.27983764944050615,0.939433723541593,0.18309812462281935,0.9282409562571738,0.514309530425118,0.26192833310984515,0.2645561267846206,0.8600292638935065,0.012134932087760042,0.8544949749152848
0.16127622795412674,0.6669792755400693,0.09879568401059635,0.19220333560586628,0.41068528102931534,0.265259645187599,0.036184711814234986,0.30868662334758085,0.9517241379310343,0.5132967289330254,0.018328609394884236,0.42454742879137386,0.07692380952130494,0.9309583418506795,0.06926007540510741,0.613817957472233,0.1295625101665661,0.7765499967555748,0.3816998970275501,0.2406824118957226,0.34370417234741396,0.12736219354475925,0.3605872928315951,0.9425750548949356,0.2049727085869725,0.8508167248504406,0.47207557654904136,0.26027906593422684,0.3604056359821383,0.7647692193411689,0.5063079888701888,0.8842430810925008
0.39203700747931763,0.7351061424842354,0.09324012845504079,0.22482175792066422,0.24074170274464274,0.3173237976861453,0.09937183687685024,0.2802858222034454,0.6413793103448275,0.47837449672687865,0.012638557826441294,0.4203706117555102,0.0939587850181148,0.9461782419542539,0.03152026783565636,0.5960620141748614,0.15961195346839097,0.7892313657659618,0.43697749341777486,0.23227683748994477,0.3196602762124497,0.8671874999999999,0.2445020506320305,0.26369618478864654,0.2837329790099222,0.807383619427151,0.042697045475595094,0.27512247051479155,0.23623568505695736,0.5204891715169212,0.15106163226151087,0.8914900261013101
0.4705115312667519,0.7116875319721783,0.12657346178837403,0.23786912684658343,0.27658561258510245,0.2999690801866298,0.022143128466987117,0.283441466775016,0.5965517241379309,0.4958356128299521,0.02590634299766029,0.3939174371950409,0.13186982420401258,0.7845418269664903,0.07955275019677588,0.570414540523102,0.0959571863113541,0.7828906812607681,0.4480330126958197,0.25749356070727825,0.34916509724591716,0.04923719354475922,0.5702248034083064,0.21343488313516396,0.0870255690566851,0.8753658713940388,0.021116976938038365,0.23389079112433409,0.32102337542750997,0.6123743271205373,0.14154610485234992,0.6233750730769152
0.4152250945055082,0.6158841253319445,0.1321290173439296,0.197096098953086,0.35396079469929925,0.3094352897318201,0.0824666674700095,0.29764186734708364,0.33587537007599666,0.4997158608528572,0.056244282874208115,0.3939174371950409,0.2127245469036253,0.7714961983062838,0.03495115943287918,0.5625230101687146,0.28696899134004455,0.76809575074865,0.35406109883243764,0.31969481131003435,0.37068987840384,0.07267469354475925,0.6948930457064892,0.018847988120055954,0.2495035643909926,0.8583703084023169,0.2705381124386405,0.22729372242186088,0.23079159304969332,0.8230378546019986,0.1810302743182086,0.7171960233281345
0.1977892306451159,0.6265289482919705,0.01666666666666668,0.21992899457344453,0.19059427406885354,0.30627988655009003,0.10001864665406934,0.2944862227755131,0.6192970437171069,0.4647936286467105,0.049925003960987466,0.4064478883026317,0.26003177010857736,0.7780190126363871,0.006861783194445647,0.5822518360546832,0.6992523675758079,0.7004617826932523,0.08872863615935839,0.9192868561016208,0.21085563303085175,0.4885232231219074,0.4130274109296176,0.2652668504653179,0.5097382194711767,0.47672558439184304,0.12012596091506879,0.35593656212008834,0.2928765685122838,0.7479741960842186,0.1334526372724035,0.9048379238305734
0.04434933731499763,0.6627213463560588,0.07277777777777784,0.24276189019380315,0.6691190579888128,0.29681367700489975,0.008101545119739248,0.2581963102024512,0.39171083682055524,0.4609133806238052,0.02590634299766029,0.5596934828057204,0.536695830863045,0.9570495991710929,0.024658484641210714,0.797044565793132,0.36682247163181997,0.6645312371638223,0.025143212404504723,0.8554044906177091,0.403405827782486,0.21614583333333331,0.2707221096810418,0.12800925264871346,0.37396666477644974,0.23878770250773532,0.09196999166435096,0.3130556155540125,0.14264490115066428,0.7995195272764911,0.38942032457883485,0.9029316054002393
0.03245073462072997,0.8558437659860891,0.14898209376718152,0.3128914981706188,0.1293318288324363,0.3094352897318201,0.05022629516148285,0.2029725301999656,0.3124004919929686,0.48031462073833125,0.02464788830810488,0.6572481834972946,0.4592328269145464,0.8106330842869035,0.05562437873380328,0.9447592875192876,0.3483232790870091,0.7702093122503811,0.05804147620973612,0.7410886786991304,0.34916509724591716,0.08523610798860896,0.4195824256918706,0.11750437493948546,0.4581706493315666,0.3426494763460363,0.04223395387607673,0.6663039389497931,0.23623568505695736,0.7513226112040544,0.23051101684584585,0.8041520259999965
0.029245723793991218,0.9701944957119273,0.1200932048782926,0.33246255155949755,0.2450497809456689,0.29208057223230466,0.11341342022409795,0.1556378616264066,0.1862068965517241,0.4434522645207319,0.08909913212986648,0.6516790941161433,0.4071192939440811,0.8871027488940499,0.03881300990741144,0.9230575790447223,0.17528812746975075,0.8931635896120556,0.27114470424710035,0.7545375977483749,0.2949782303940917,0.08829969354475926,0.5834577947481913,0.02216496836553566,0.41524816361205036,0.7704655222913964,0.45799759192368245,0.6630054045985566,0.28500011640135814,0.9429500140723797,0.2194095682018247,0.7149077074683488
0.028268278644468084,0.9978710354079948,0.21564876043384823,0.9771671043796415,0.15406072211226796,0.30785758814095504,0.13447579524496975,0.14143746105433888,0.17586206896551737,0.43763189248637413,0.04486417973732223,0.6280104642462497,0.3027524187434323,0.7280107694389284,0.08581622478936411,0.9013558705701568,0.2093684869007616,0.8825957821033996,0.1274229536325158,0.7125097257194857,0.32539051953466974,0.08333333333333336,0.33436723378258376,0.08935229467812883,0.5794256330071812,0.9509017069128032,0.4016856534222468,0.9552308424964603,0.17322406816955216,0.9519144194971227,0.12584021534507467,0.6210867572171292
0.03387704759126092,0.8643596243541102,0.2856487604338482,0.9396559187176239,0.20851622898908342,0.30785758814095504,0.14149658691859368,0.11619230448177402,0.3324270942139275,0.4104701563260377,0.06319548967875083,0.6168722854839467,0.6597652491157727,0.712790869335354,0.1798226545532694,0.8776812795069944,0.1295625101665661,0.6581905526586287,0.7575875524810788,0.1263665999771438,0.24748293865634016,0.051841360211425894,0.21363200034175256,0.199298892045122,0.6573610982585906,0.7440279798598287,0.2731129017319625,0.8876108882961101,0.13992285514703226,0.7546975001527759,0.10680916052675266,0.7858454991217096
0.04128045629576307,0.6903978860521264,0.4978709826560704,0.9298703920231843,0.23143590422646493,0.6437022490729365,0.04104399659562829,0.07674674733714151,0.2600133011104794,0.39882941225732216,0.35514617546954447,0.5959882003046288,0.3994505608043156,0.7236622265521929,0.29166972062273333,0.855979571032429,0.22101374477293537,0.73216520521922,0.09978415543740336,0.2406824118957226,0.3018852602471392,0.07007052687809258,0.6174209096965267,0.04066165870131756,0.5418883742429246,0.33698428868212904,0.4413448180050014,0.760617315773501,0.2955986145159158,0.6695356486177171,0.24581779140332627,0.623757070506367
0.010816911540243324,0.6882689214601212,0.6234265382116259,0.83853880954175,0.13160080828563706,0.9495705797784821,0.04806478826925222,0.019945145048870645,0.19794433559323793,0.40076953626877476,0.6148685388029128,0.5918113832687653,0.5833473926762078,0.7280107694389284,0.42272977963664504,0.854006688443832,0.17754110332224315,0.6666447986655535,0.40381093558363995,0.8217821929945979,0.2588356979312936,0.04142469354475933,0.42798098306742005,0.10034695441482813,0.6132512684995058,0.2614484531633646,0.15837732703528756,0.24543566135366218,0.2622974014933959,0.7395634475413005,0.30885552584793824,0.8260820253826878
0.016425680487036163,0.6307868774759808,0.31999999999999995,0.7277992657830109,0.1293318288324363,0.9543036845510773,0.07830946185597859,0.029412078763582428,0.2669098528346173,0.47449424870397344,0.686276390522306,0.6419331876991283,0.7033346523592672,0.6388656402608498,0.33867293550468597,0.9072745183359474,0.11745598924880082,0.863573728587819,0.27223406826880964,0.17007558688718863,0.5475450481557316,0.09659613978857408,0.16053638076750468,0.23071220557854863,0.4251784424699477,0.8054952235391819,0.2339353524127074,0.27182393616355494,0.1608301654761773,0.21457883639756498,0.1741341515876466,0.6988894964498478
0.0168263068403785,0.8169090450875531,0.27842653821162594,0.1139191220503511,0.14998252461661743,0.6437022490729365,0.04914554171536754,0.1445931056259095,0.2710211816481414,0.160388171249798,0.14660997133326328,0.28810473895316346,0.4742840753077536,0.608425840053701,0.13414786145141225,0.5506857146371334,0.1909643014711106,0.7723228737521123,0.44250525305679733,0.19865453986683335,0.7045369964432182,0.29190863978857406,0.16715287643744708,0.6047062855184625,0.570756555246841,0.7450665551241704,0.6253033249976847,0.27677173769040986,0.1320464030361066,0.8807528329810034,0.31282559821724815,0.8970198170360488
0.034678300297945615,0.33273183459525324,0.5356487604338482,0.053575040767974806,0.25616479750629695,0.2542157340515437,0.521266147071505,0.6121950468846971,0.39171083682055524,0.4221109003947533,0.25024614551008184,0.20735294292646744,0.6823687636841496,0.588857397063391,0.4741052838774002,0.5250382409853742,0.27124531378110484,0.7554143817382629,0.3540610988324375,0.2238712630841669,0.4396022239300275,0.16642469354475933,0.045885103335769686,0.6109889482251477,0.30460054984989615,0.3860825817693258,0.15133833472260813,0.2817195392172648,0.23351363905332534,0.9093334937295934,0.06343684939440676,0.7812688674021381
0.024614399996721506,0.7472665717938242,0.44620431598940374,0.1677395188697678,0.10460293555260465,0.04922428963498925,0.008101545119739248,0.8115671995599832,0.1882625609584863,0.5941260568041168,0.6350902313252188,0.13453709926791227,0.48571397070409894,0.38956475245210503,0.26825178804403094,0.30407539106252574,0.1573589776158986,0.7050566159579807,0.1907077075462757,0.2423635267768781,0.403405827782486,0.11173719354475928,0.16315838667240581,0.26212551911197524,0.2103166952836549,0.27466722437914837,0.19755487635454277,0.3147048827296308,0.34193068575665503,0.8689936693182496,0.08128109792766348,0.9199029756339071
0.011217537893585658,0.6840109922761107,0.12398209376718156,0.15795399217532838,0.09506725632905158,0.048277668680470225,0.2766191919407827,0.8336567115609774,0.45033152647572733,0.9262752875648014,0.23886874291974022,0.24772884093981545,0.717480562503259,0.5678550108082622,0.17536249547687968,0.02184481257367579,0.3131637602127955,0.7980533220341526,0.14730670042690158,0.28102916904345626,0.2588356979312936,0.12475802687809262,0.10488023619604518,0.1631735814816814,0.16907643670663128,0.4597300214001211,0.11427248309715675,0.304809279675921,0.344652731760287,0.6975361786555961,0.06542188557906178,0.9162795031295025
0.021057004284305885,0.8196513679220008,0.13342653821162595,0.19709609895308597,0.06783950289064392,0.2857697658688445,0.4363698372107989,0.2566184879166659,0.14482758620689648,0.731426752317629,0.4429787512702224,0.2560824750115426,0.5239345700714426,0.8722530128797498,0.419211018321835,0.3178855691827038,0.44648593769327566,0.7638686277451876,0.094256395798381,0.32473815595350103,0.32533665584992644,0.10440863978857402,0.2163769680620329,0.16631491283502406,0.7377968494021171,0.47106039672793576,0.13186996387885538,0.3443916918907602,0.2071622367169163,0.7356349017107541,0.04639083076073973,0.9532745543155279
0.021858256990990563,0.9595496727519014,0.031759871544959316,0.17589412444846728,0.11821681227180848,0.9211719511429115,0.16358444599543742,0.199816885628395,0.16067635406193437,0.8622511951868657,0.468255866923105,0.2769665601908605,0.3343793741419539,0.804850598135349,0.0027007784189846443,0.9447592875192876,0.3169709310842895,0.8433110391907398,0.11083967471544834,0.28775362856807857,0.403405827782486,0.08357530645524079,0.05905661376796492,0.20558155475180734,0.5996247362507575,0.4257388954166771,0.007502083912197821,0.35428729494447,0.1556757593688836,0.8185556518896271,0.04004714582129905,0.9303913957176694
0.010993103983081752,0.9127124517277869,0.021017906232818503,0.1856796511429067,0.21328406860085983,0.23370561337029816,0.3829565511011136,0.20612817477153622,0.1151857149035827,0.7574844985684254,0.44929803018344305,0.23798293452280042,0.4952200223208615,0.4987131789091671,0.0027007784189846443,0.9191118138675286,0.4409008265450882,0.9142992046293673,0.04504314710498568,0.3432304196462123,0.3617485067364413,0.06486219354475924,0.14427180567725176,0.20244022339846468,0.5006481156659008,0.3879709776572949,0.07789200703899221,0.36418289799817977,0.2771236642904325,0.9631199262780517,0.0749374129882228,0.9052199212600253
0.010993103983081752,0.8871648766237247,0.1821290173439295,0.21014346787900512,0.1631366399250705,0.17690835609915673,0.26430517181686924,0.26766324391716295,0.719297043717107,0.7536042505455203,0.4556173090966637,0.2713974708097091,0.09106971966529662,0.8831243700965888,0.6216336225579814,0.49544500215642134,0.7263293953963386,0.9206398891345609,0.07767311688131354,0.3566793386954569,0.7107520129281284,0.15861219354475933,0.16393684996401026,0.18830423230842266,0.5295162966698174,0.3596450393377583,0.1623599147911455,0.36253363082256146,0.22048278083510608,0.8320022600267417,0.04639083076073973,0.9258147639980976
0.03347642123791858,0.955291743567891,0.3099067951217074,0.19872702006882587,0.17721027805502484,0.2857697658688445,0.21872529532845697,0.961460316709587,0.7365384230274516,0.8215085909463613,0.4429787512702224,0.2769665601908605,0.1326886371506422,0.6504773256562374,0.3883329939468297,0.4461229374414999,0.4303347281161171,0.8699144130930128,0.05556207832522359,0.28775362856807857,0.609446900131755,0.11434136021142595,0.032775073811264016,0.21186421745849265,0.22146018855861657,0.4144085200888624,0.08493099935167167,0.3575858292957066,0.3113515187377671,0.8476899695200419,0.04639083076073973,0.9441212908763845
0.1471099969473092,0.989355177039974,0.34324012845504076,0.19220333560586628,0.1132190919546567,0.3110129913226851,0.43636983721079875,0.9377929824228074,0.7951591126826242,0.9282154115762539,0.3924245199644572,0.30202746240604206,0.1714484309451794,0.6461287827695019,0.2819753544329222,0.8954372228043661,0.4604316749755218,0.8255296215566579,0.038409835538158695,0.26589913511305613,0.1987569967030179,0.028403860211425984,0.013048548616815947,0.2432775309919193,0.41816759851185364,0.43329247896855355,0.027692877651199453,0.3592350964713249,0.215038688827842,0.8118323478210698,0.04004714582129905,0.950986238455742
0.3012710177134437,0.9680655311199221,0.3932401284550408,0.20851254676326522,0.09983509594082812,0.29208057223230466,0.10639262855047417,0.6453293148861884,0.7517241379310344,0.9301555355877065,0.23444254713394136,0.28810473895316346,0.11263138640818383,0.5953802113934944,0.6868205629052149,0.5487128320485366,0.34269066438124174,0.7850042427624995,0.1329507132715383,0.28271028392461184,0.5424073053656885,0.05704969354475923,0.02628153995670076,0.26212551911197524,0.41253493000513214,0.4314040830805845,0.028155969250717817,0.33779462318828696,0.5435678597963518,0.8320022600267417,0.04639083076073973,0.9048379238305734
0.25978206940867826,0.8558437659860891,0.43768457289948504,0.24602373242528294,0.18605631516245227,0.23843871814289327,0.07722870840986312,0.2881749336323719,0.3931034482758622,0.8952333033815598,0.10047653472020814,0.29506610067960276,0.2466747312492053,0.2962004607860894,0.4054874519329437,0.24094314822742616,0.3210968543286352,0.8559924082011269,0.11083967471544834,0.25245021606381157,0.2531593182938169,0.0596538602114259,0.019726525194447925,0.27312017884867457,0.2255928378754843,0.43706927074449176,0.02158006853755673,0.33449608883705034,0.24364881645547562,0.8476899695200419,0.07176557051850246,0.9071262396903591
0.045094585484846586,0.6946558152361367,0.37657346178837414,0.29332044478173996,0.39480242485691086,0.16744214655396647,0.3310579621064399,0.17930519591318608,0.29449605973116905,0.9340357836106119,0.11690665989458182,0.31595018585892065,0.22404127501881857,0.7526680834945225,0.18531208110882588,0.5112280628651963,0.36898044036915256,0.8699144130930125,0.07767311688131354,0.262536905350745,0.23190385555961093,0.07788302687809258,0.013171510432195093,0.24956019369860458,0.4433327797030034,0.4295156871926153,0.007038992312679454,0.34604095906637844,0.2668148520758452,0.8118323478210698,0.03211753964699819,0.9117028714099308
0.0735709403751561,0.8558437659860891,0.30435123956615184,0.309629655939139,0.36734479071312803,0.8343983636453343,0.1485173785922176,0.20612817477153622,0.9103448275862068,0.8253888389692664,0.05750273756376338,0.31455791351363277,0.16013170282998598,0.7287510976174771,0.1598795484305834,0.5447670668713429,0.25556913977974505,0.8741415360964748,0.011608295241947224,0.29279697321154524,0.15003105474969566,0.09090386021142592,0.013048548616815947,0.24170686531524793,0.16619824206540498,0.4257388954166771,0.028619060850236185,0.3526380277688517,0.29832066051954786,0.9210926573923471,0.04956267323046007,0.9578511860350994
0.02140938916998273,0.968065531119922,0.09879568401059635,0.9755361832639016,0.30154438657030946,0.8312429604636041,0.14149658691859368,0.08621368105185334,0.5689655172413792,0.4841948687612364,0.15229192126207294,0.382779258432738,0.093898901694095,0.6765685829766507,0.30676564365051373,0.5467399494599398,0.30312020091720315,0.9206398891345609,0.0058122415740212065,0.3012025476173231,0.28978662391930526,0.07527886021142591,0.01311002952450552,0.22128821151852066,0.2383600711160309,0.3879709776572949,0.028619060850236185,0.3724292338762712,0.2622974014933959,0.9810487371275377,0.005074947951552547,0.9395446591568127
0.026665773231098703,0.8765200536636986,0.07101790623281855,0.83690788842601,0.25616479750629695,0.2037292831438624,0.1485173785922176,0.09410279248077985,0.3151857149035829,0.4570331326009,0.06951206804542698,0.41480152237435886,0.12219072198207834,0.7896306980317747,0.26285023120606166,0.5270111235739712,0.3450386473488939,0.7955720502711552,0.05830977023863965,0.34659264940852347,0.3196602762124497,0.07527886021142591,0.01311002952450552,0.18830423230842266,0.15505474879044326,0.38230578999338766,0.042697045475595094,0.6712517404766483,0.1505213532615899,0.9765665344151662,0.02909902001860433,0.9212381322785259
0.021233196727144306,0.6520765233960328,0.054351239566151864,0.7928730183010329,0.2473187603988694,0.8249321541001441,0.1134134202240981,0.0657019913366444,0.45172413793103444,0.4900152407955942,0.08846990478508891,0.7004086262012185,0.093898901694095,0.6388656402608498,0.22133644287966547,0.5112280628651963,0.46441508754712796,0.7934584887694242,0.13901506096836783,0.3499548791708346,0.14435467511221903,0.04663302687809255,0.07216664329247059,0.16474424715835273,0.33915988653744183,0.36531022700166565,0.03565805316291564,0.9618279111989337,0.33967196046543036,0.95863772356568,0.04432386387326197,0.8960666578208819
0.0290695313511528,0.49453314358764827,0.08620431598940374,0.8320151250787905,0.30881108634066184,0.8501753795539846,0.4925361705997902,0.01836732276308534,0.23103448275862068,0.5559794571849825,0.398743798877678,0.563870299841584,0.1609804574386255,0.7653435480654548,0.18256736783104763,0.5625230101687146,0.3210968543286352,0.7997991732746176,0.2009259689254197,0.9747636471797546,0.10880464318159791,0.031008026878092655,0.15082682043950457,0.14118426200828277,0.2536362137078603,0.3464262681219745,0.028619060850236185,0.9387381707402774,0.13992285514703226,0.9743254330589802,0.07857976254624166,0.8480120247653793
0.18504931260882934,0.6286579128839757,0.19944444444444448,0.7064341991668182,0.38118854813770703,0.20846238791645752,0.499556962273414,0.14617092791169475,0.2462201976622035,0.9631376437824007,0.43034019344378127,0.36746426263457155,0.1714484309451794,0.767887983598097,0.11497880336575808,0.4421771722643061,0.35067126205466126,0.7828906812607682,0.20534817663663768,0.9495469239624211,0.14435467511221903,0.051841360211425894,0.18360189425076875,0.10820028279818479,0.15505474879044326,0.3388726845700981,0.007502083912197821,0.9321411020378042,0.1862549263877714,0.9676021289904231,0.1325010845314874,0.8434353930458076
0.18010566656121696,0.8616173015196623,0.2543512395661518,0.06319891111900197,0.39480242485691086,0.23370561337029816,0.4310766087605092,0.25188502105931,0.40205566440676216,0.9301555355877065,0.18073137691811042,0.43995806111096436,0.061676168227803765,0.8548588413328079,0.1927721729051289,0.7060404942990675,0.28696899134004455,0.7617550662434565,0.3125867136336738,0.9041568221712206,0.31617982944355427,0.0596538602114259,0.20982195329978007,0.05479764979135956,0.1938292153120108,0.3332074969061908,0.19733259238677422,0.892558689822965,0.17322406816955216,0.8499310708762278,0.21179714627449586,0.7908041282707333
0.052738370001354146,0.8637462661116675,0.21388888888888888,0.6733265005172981,0.4812535247839103,0.22897250859770304,0.6883609889037545,0.05939070219350318,0.08070295628289302,0.20636911032122454,0.030967167221325528,0.5277668553855236,0.0427206486348549,0.6501071615669631,0.47689393201397196,0.6655964012328318,0.2093684869007616,0.7511872587348006,0.6912382489067138,0.7091474959571745,0.7688834069721163,0.09350802687809259,0.2360420123487914,0.02530629971887833,0.16206559274853727,0.2350109107317971,0.7273687135315366,0.8744167508911636,0.35496154397487434,0.9362267100038223,0.42621369722759084,0.738172863495659
0.04028706924473845,0.5945944794118925,0.3099067951217074,0.45339607017569195,0.2609326371180733,0.2983913785957648,0.5753262429584092,0.12723706048227115,0.09860738854469332,0.2321727596735441,0.2534003838736033,0.41619379471964674,0.0891192339071477,0.6258200116006433,0.24500959490050297,0.4303398767327249,0.16186492932088334,0.6645312371638223,0.4839472624433707,0.7713487465599306,0.3762585306718299,0.1351746935447593,0.16393684996401026,0.02216496836553566,0.2326036818335783,0.233122514843828,0.8575900713161064,0.8496777432568892,0.35496154397487434,0.8140734491772555,0.44175572532922047,0.6420635973846537
0.035030685183622484,0.8743910890716934,0.4217598715449593,0.24765465354102284,0.24074170274464274,0.6876721156948854,0.5528597096028127,0.168260439912689,0.10828916317944477,0.6247199316877361,0.34250761764310317,0.3549338115269808,0.08541135560769997,0.9440039705108862,0.17218682332179197,0.4796619414476465,0.26542268484501796,0.8255296215566579,0.35901989460146266,0.3566793386954569,0.28978662391930526,0.03409613978857407,0.2163769680620329,0.04066165870131756,0.12207978884715513,0.26333684905133375,0.16636102621098464,0.26687613463670007,0.2798457102940645,0.9160567977981505,0.0849234474856823,0.7908041282707333
0.021057004284305885,0.804135257535522,0.4321290173439296,0.21503623122622484,0.3242341811023158,0.23370561337029816,0.5416817123151576,0.2029725301999656,0.14827586206896562,0.6344806362423309,0.6603673469781014,0.382779258432738,0.18106764984309376,0.739622454834316,0.2991737472778299,0.8007388585517168,0.193217277323603,0.5993785408714218,0.5419887386531068,0.03799319631411588,0.5510254949246269,0.06795030645524078,0.1796074044857274,0.18987489798509402,0.13815486623302894,0.3502030598979127,0.056311938501435635,0.14977816516780074,0.1862549263877714,0.7065005840803391,0.11934320756430751,0.653123179254131
0.026441339320594795,0.8126511159035428,0.21666666666666667,0.2134053101104849,0.09506725632905158,0.07435775269292907,0.24994018358101175,0.9062365367071015,0.060013301110479214,0.25526023540983,0.13080907350366724,0.3953097095403288,0.08433956612020041,0.7236622265521928,0.16639824246530674,0.49741788474501825,0.23716495435009396,0.6721125575505145,0.6442522919750227,0.21882791844070018,0.403405827782486,0.10652886021142594,0.02628153995670076,0.824775129144586,0.1703308913822727,0.70352184558885,0.6963971473557471,0.030016662596253074,0.1992857846059907,0.6852233581110173,0.06542188557906178,0.4670830998535424
0.02065637793096353,0.34763458673928965,0.34120431598940376,0.19057241449012638,0.25435557946384657,0.5537732583936292,0.45948318034361435,0.2771301776318748,0.09860738854469332,0.365847304062628,0.07646057430342532,0.35214926683640513,0.23626664106667133,0.5953802113934944,0.19620306450235173,0.5487128320485366,0.23134232541400707,0.7397465256059121,0.23685640657906581,0.18688673569874434,0.5155293266787492,0.11694552687809262,0.5518707620739984,0.8483351142946558,0.09979280229723175,0.9641204781285868,0.27663239788830235,0.17616643997769355,0.24880322256276924,0.7378760030669398,0.23352953647423966,0.5638788607224833
0.02140938916998273,0.5584020813478041,0.10435123956615192,0.22971452126788394,0.3065421068874612,0.8359760652361993,0.1906421286339612,0.19666124105682442,0.06412462992400327,0.5385183410819091,0.07520211961387005,0.35911062856284437,0.14796622010615318,0.8762313916772109,0.045243834224547655,0.5171467106309868,0.25556913977974505,0.838210990567045,0.16775941109128478,0.22219014820301133,0.347130755431566,0.13777886021142596,0.16715287643744708,0.6062769511951337,0.2326036818335783,0.964120478128587,0.4579975919236823,0.19595764608511315,0.1992857846059907,0.7065005840803391,0.012134932087760042,0.7469441295053504
0.020031317667117274,0.9659365665279168,0.13768457289948516,0.24928557465676274,0.22939680547863955,0.9022395320525309,0.12043421189772188,0.2818636444892307,0.13103448275862078,0.486134992772689,0.031596394566103234,0.41619379471964674,0.11939148161528994,0.9483525133976216,0.08984542498844436,0.6039535445292487,0.22551969647792022,0.7744364352538434,0.0942402078922857,0.2121034589160779,0.403405827782486,0.033612193544759264,0.2950371452090669,0.19144556366176535,0.19670740995323713,0.824379182418873,0.39464666110956753,0.16627083692398376,0.21260632872418042,0.8964405424743037,0.012134932087760042,0.7011778123096337
0.0432835880624748,0.8430699784340581,0.20990679512170732,0.23623820573084353,0.32469394251306627,0.3267900072313355,0.062106371616500095,0.2944862227755131,0.1468832506136585,0.4647936286467105,0.05750273756376352,0.413409250029071,0.4357805577375302,0.9570495991710929,0.06926007540510741,0.6019806619406518,0.25509410420394624,0.7279380822157576,0.062463683920954104,0.23227683748994474,0.403405827782486,0.004966360211425963,0.18550691777175501,0.14903759039163944,0.2103166952836549,0.6884146784850971,0.401685653422247,0.20585324913882297,0.29832066051954786,0.6123743271205373,0.012134932087760042,0.7286376026270637
0.04128045629576307,0.5860786210438717,0.054351239566151864,0.2574401802354622,0.4424509933741242,0.23212791177943312,0.0712886701823545,0.2534628433450953,0.0965517241379311,0.45121276056654225,0.07646057430342518,0.41480152237435886,0.1759451805292468,0.8697085773471077,0.03152026783565636,0.5842247186432801,0.18336373225833005,0.6750990446724782,0.19375606930078554,0.2255523779653225,0.9278226624438906,0.01065863978857405,0.7157461311303192,0.2715495131720032,0.09979280229723175,0.7733924934437071,0.401685653422247,0.22729372242186088,0.2746913041867709,0.643749746107138,0.591947735552638,0.7744039198227805
0.016249488044197735,0.7010427090121524,0.24324012845504067,0.24928557465676274,0.5470539289267288,0.2526380324606787,0.23978767034932877,0.23926244277302758,0.23242709421392763,0.3930090402229644,0.13965336343563164,0.4092324329932074,0.5324221161578377,0.7736704697496515,0.14473969054400937,0.9881627044684187,0.22551969647792022,0.7533008202365318,0.23245038677394295,0.23563906725225586,0.0056763796374766536,0.09350802687809259,0.4437130184968268,0.9001670816248097,0.173209086023499,0.8999150179376374,0.4720755765490412,0.24873419570489877,0.5935486184655377,0.894199441118118,0.6585564274167651,0.8590716066348565
0.03765887721418045,0.5285965770597315,0.10990679512170734,0.24276189019380315,0.4197611988421178,0.28261436268711443,0.15553817026584155,0.2818636444892307,0.2227453195791758,0.4415121405092793,0.1902075947413968,0.41758606706493456,0.23173994982059393,0.9287840704073117,0.10356899137733556,0.570414540523102,0.1573589776158986,0.7892313657659618,0.2932557428031903,0.2305957226087892,0.7928734394223371,0.1143413602114259,0.46546752902764027,0.6094182825484764,0.2383600711160309,0.80927201531512,0.4579975919236823,0.26192833310984515,0.29832066051954786,0.9474322167847513,0.48410509158214643,0.6851596012911328
0.034678300297945615,0.8153934387379905,0.03898209376718155,0.23297636349936374,0.4948674015031141,0.6184590236190959,0.05508557994287616,0.2787079999176601,0.45377980233779647,0.9728382638396637,0.1643039522902811,0.43150879051781316,0.6144683949929894,0.7801932840797549,0.006817848335652032,0.6078993097064425,0.16186492932088334,0.7427330127278758,0.5475326861982245,0.2440446416580337,0.2800911606654995,0.051841360211425894,0.26941110672859114,0.9362923921882504,0.4363219357449094,0.8413747454105949,0.31017875335741407,0.2569805315829902,0.4800465901252983,0.8499310708762277,0.22718585153479906,0.8695600267186188
0.020031317667117274,0.8956807349917455,0.13768457289948502,0.22319083680492433,0.42679801790709493,0.27945895950538435,0.10212488415615652,0.26766324391716295,0.2068965517241379,0.5715004492766033,0.17378287066011208,0.41758606706493456,0.4280269491369008,0.7693219268629159,0.024658484641210714,0.5842247186432801,0.15961195346839097,0.8623330927063204,0.508838368725067,0.24572575653918927,0.6242801061756038,0.051841360211425894,0.34866530444416083,0.15217892174498207,0.44292037711723314,0.9263525603692048,0.12012596091506879,0.25533126440737197,0.6051547286748657,0.8869224801677357,0.1230674878251491,0.7309259184868496
0.023460762404359937,0.8345541200660372,0.04277777777777782,0.24276189019380315,0.4649109072007554,0.3110129913226851,0.14495171336526252,0.25977413248823644,0.3738064045587553,0.4647936286467104,0.031596394566103234,0.42454742879137386,0.23145703161771414,0.7758447411930192,0.024359330340282044,0.5960620141748613,0.36682247163181997,0.7173702747071017,0.4259219741397299,0.3129703517854121,0.3617485067364413,0.10416666666666664,0.5441277061746742,0.05165631843801686,0.20456030600120226,0.9754508534564016,0.028619060850236185,0.27347320333917324,0.7163516996526399,0.8252789559581843,0.15026340236192132,0.7149077074683488
0.020832570373801967,0.6180130899239498,0.015093204878292637,0.27864215474008097,0.13183068899101233,0.33783391836739074,0.16180161338195995,0.2503071987735247,0.579310344827586,0.4434522645207319,0.012638557826441294,0.7018008985465063,0.7420944461538045,0.7758447411930192,0.03606829662963318,0.9901355870570155,0.3210968543286352,0.73216520521922,0.22692262713492045,0.9646769578928213,0.34916509724591716,0.41638780645524076,0.24259702711104425,0.24956019369860458,0.5546814778609671,0.9565668945767104,0.23182365471890348,0.29161514227097457,0.3243823769559864,0.7804569288344693,0.1654882462165789,0.8361884480369982
0.030046976500675913,0.7031716736041576,0.06120431598940379,0.2867967603187804,0.22485884657223826,0.34098932154912087,0.05616633338899147,0.21717293077203334,0.5600133011104792,0.42405102440620596,0.018328609394884236,0.6892704474389155,0.39781293491105646,0.7693219268629159,0.02611871099768707,0.9782982915254342,0.18871132561861814,0.7194838362088329,0.1329507132715383,0.9125623965769984,0.2949782303940917,0.14322916666666669,0.24915204187329706,0.07050430655807284,0.6573610982585906,0.4446228542963682,0.05584884690191727,0.304809279675921,0.24364881645547562,0.7378760030669398,0.1607304825119984,0.9176146597741214
0.02140938916998273,0.8622306597621048,0.038333333333333365,0.2851658392030405,0.181518356256051,0.3299454104130656,0.08533025352960252,0.2029725301999656,0.28759950800703094,0.4395720164978267,0.08277985321664583,0.6683863622595976,0.47915026839728686,0.7519277553159738,0.006861783194445647,0.9467321701078845,0.22551969647792022,0.7871178042642306,0.17717279038371808,0.8923890180031316,0.3196602762124497,0.1403830268780926,0.20982195329978007,0.026525667611275575,0.628492917254674,0.3879709776572949,0.014077984625358909,0.65970687024732,0.21260632872418042,0.8785117316248177,0.30980707858885437,0.8201702370184972
0.03765887721418045,0.7095585673801732,0.21564876043384823,0.30799873482339907,0.2881603905564809,0.33467851518566066,0.04320550348785892,0.1935055964852538,0.8517241379310344,0.4453923885321845,0.025277115652882588,0.6572481834972946,0.23765129041906055,0.7236622265521929,0.05562437873380328,0.9388406397534972,0.35067126205466126,0.8762550975982062,0.12105793609459235,0.7747109763222416,0.23136521871217727,0.04166666666666665,0.36058729283159496,0.017452971335521664,0.7006719932236305,0.4918327514955959,0.042697045475595094,0.9436859722671322,0.10662164212451242,0.8152072367697913,0.20894248805174756,0.7606740246640655
0.025415652703406198,0.6903978860521264,0.09509320487829265,0.2884276814345203,0.30154438657030946,0.26683734677846405,0.008101545119739248,0.1982390633426097,0.32758620689655177,0.44539238853218444,0.01200933048166359,0.683701358057764,0.4871552036970642,0.9461782419542539,0.04601788226157937,0.9684338785824502,0.18871132561861814,0.7575279432399941,0.13156067940873514,0.7310019894121969,0.3075616398846158,0.9427083333333334,0.11149673186598759,0.020418653796727287,0.686229279262507,0.42196210364073894,0.47911456886172066,0.9618279111989337,0.8658885332186026,0.8398593516878348,0.20894248805174756,0.8339001321772124
0.030623795296856687,0.6776240985000952,0.17564876043384822,0.31452241928635866,0.14998252461661743,0.26683734677846405,0.014041583347247867,0.19666124105682442,0.4275862068965517,0.44733251254363704,0.06888284070064941,0.6516790941161433,0.5783147483483906,0.806284541400168,0.14825845185881942,0.9506779352850783,0.1909643014711106,0.7173702747071017,0.4646162916128873,0.766305401916464,0.618603726538127,0.07527886021142591,0.2557070566355499,0.07678696926475817,0.32084058827007805,0.3332074969061908,0.46503658423636174,0.9420367050915139,0.4105600294637613,0.9317445072914509,0.1718319311560196,0.740079181925993
0.026665773231098703,0.7010427090121524,0.29009320487829265,0.9266085497917047,0.04537958906401278,0.32994541041306563,0.1134134202240981,0.13354834962541237,0.595159112682624,0.4027096602802273,0.012638557826441294,0.6043418343763559,0.8125111370088732,0.7627991125328126,0.19080150766438245,0.8441422755008477,0.34269066438124174,0.7892313657659618,0.3540610988324375,0.1263665999771438,0.3918376137685592,0.060137806455240764,0.30081369667971514,0.19301622933843668,0.27960032969305454,0.7666887305154583,0.28296749096971374,0.5871391145201149,0.16870661758710298,0.846582655756392,0.16271551869665338,0.7538090770847079
0.034678300297945615,0.6627213463560588,0.5200932048782927,0.8711572318565481,0.08645109992699954,0.9195942495520465,0.21170450365483304,0.043612479335650156,0.282758620689655,0.33674544389083905,0.15672081759441633,0.5361204894572507,0.5310374668054485,0.6410399117042175,0.2652518553241176,0.796793093374523,0.4707602556165935,0.796812686152654,0.7465158452969386,0.5497245661378715,0.7066915438329526,0.1299663602114259,0.4699330775458382,0.10034695441482816,0.3769273399348301,0.4823907720557503,0.02158006853755673,0.7342290409636081,0.34754841257635605,0.9093334937295934,0.3143295887492856,0.5825673850302219
0.01660187292987459,0.6669792755400693,0.6500932048782926,0.7080651202825582,0.12910194812706105,0.9243273543246414,0.12745500357134582,0.023760532267382214,0.4241379310344829,0.40464978429167997,0.4720528353641263,0.5194132213137964,0.8917581754772368,0.5758117684031845,0.4824272934283222,0.8007388585517168,0.3530192450223134,0.4299259104716615,0.08981800018106777,0.8385933418061534,0.5750155273748478,0.15861219354475933,0.4273254815911947,0.14275492768495407,0.2565144083490867,0.302993162698685,0.014541076224877277,0.3130556155540125,0.35496154397487434,0.8740295289124462,0.12742613657993485,0.7675389722434229
0.041961521096445055,0.9020676287677609,0.1966666666666666,0.7879802549538132,0.10664203430043004,0.6452799506638015,0.09235104520322646,0.029598474724787837,0.306896551724138,0.3619670560397228,0.5004895904736192,0.48172623146960014,0.5748598465898128,0.7193136836654572,0.23231529599077855,0.8066575063175074,0.46220961525221543,0.7714499481318798,0.2589674451351557,0.2121034589160779,0.7212347387136614,0.13257052687809262,0.3198232394902484,0.18987489798509402,0.32084058827007805,0.44273445840839903,0.08446790775215346,0.2949136766222112,0.2622974014933959,0.7378760030669398,0.065339954876239,0.9002612921110017
0.06211302666956503,0.9659365665279168,0.448426538211626,0.14661980830501692,0.15859868101866922,0.9527259829602122,0.07128867018235466,0.19508341877103913,0.3034482758620688,0.3503263119710072,0.04360572504776682,0.14873827718984847,0.7967276009716223,0.9092156274170019,0.14130879894678655,0.31591268659410693,0.4405207980844492,0.7938261990306902,0.1827005500227407,0.24404464165803372,0.8758235139271197,0.31248155645524067,0.2936646613489267,0.2542721907286186,0.8883065462899224,0.9773392493443709,0.47818838566268423,0.35923509647132484,0.23351363905332534,0.7401171044231255,0.13099709399944998,0.8361884480369982
0.026665773231098703,0.6882689214601212,0.3389820937671815,0.14140086073464925,0.09506725632905158,0.19011304169923737,0.008101545119739248,0.857324045847757,0.2482758620689657,0.6324804277335465,0.637617942890507,0.17533067898484664,0.8821389565793224,0.8501401343567978,0.20306484769679736,0.20385295556180522,0.432777718198929,0.7596415047417252,0.39828317594461743,0.28943474344923414,0.6328982957345423,0.051841360211425894,0.09177020667153951,0.26212551911197524,0.5876736847225859,0.39363616532120227,0.09196999166435112,0.3460409590663785,0.2622974014933959,0.8421004530440205,0.09396846780654479,0.8113989710088058
0.013396862103135827,0.7180744257481939,0.38620431598940375,0.12859741209201017,0.19990007258703124,0.16671505039124912,0.45564937961819296,0.6009279244076456,0.1261935954412447,0.6837597861332269,0.10805696886952841,0.1767229513301345,0.27927020790440604,0.7374481833909482,0.4157801267246122,0.48360770662484015,0.7426028069999987,0.6606718244216261,0.38831702068828183,0.28102916904345626,0.8190180192622927,0.1013205268780926,0.0851537110015971,0.199298892045122,0.7588293812763992,0.24256449428367355,0.19051588404186334,0.3460409590663785,0.20472987661325473,0.7933498800897588,0.06842986664313656,0.8686068675034517
0.017050740750882403,0.8004906865939541,0.15990679512170738,0.06009872523093441,0.2725074150894516,0.22739480700683798,0.448628587944569,0.767388175557995,0.1261935954412447,0.8719518152441288,0.3102738940925891,0.2672206537738455,0.2466747312492053,0.5830749109118366,0.13460031789622143,0.5921162489976676,0.3508612762849808,0.7883584401457291,0.2589674451351557,0.3281003857158122,0.7527243015491069,0.1721169731219074,0.15738183520175741,0.15374958742165343,0.22146018855861663,0.36342183111369647,0.08048531999629537,0.3328468216614321,0.5312783147179844,0.5832400094901223,0.06859372804878212,0.8686068675034517
0.03245073462072997,0.7116875319721783,0.15990679512170727,0.053575040767974806,0.08418212047379878,0.18637456564434698,0.8295341709337387,0.2944862227755131,0.09860738854469332,0.5598597052078876,0.91060539084855,0.20456839823589174,0.2127245469036253,0.7997617270700648,0.3001590798982032,0.5487128320485366,0.6137459639320271,0.7596415047417253,0.1605895114666506,0.3247381559535011,0.9035426188305297,0.09920030645524074,0.28192711568456125,0.18359223527840868,0.2354818764748046,0.4540648337362138,0.07742891543947385,0.3674814323494164,0.4846682510498007,0.9227801018667079,0.04956267323046007,0.9052199212600253
