X [s],L_Quad: EMG 1 [Volts],L_Hamstrings: EMG 2 [Volts],L_AnteriorTibialis: EMG 3 [Volts],L_Calf: EMG 4 [Volts],R_Quad: EMG 5 [Volts],R_Hamstrings: EMG 6 [Volts],R_AnteriorTibialis: EMG 7 [Volts],R_Calf: EMG 8 [Volts],L_Quad: Acc 1.X [g],L_Quad: Acc 1.Y [g],L_Quad: Acc 1.Z [g],L_Hamstrings: Acc 2.X [g],L_Hamstrings: Acc 2.Y [g],L_Hamstrings: Acc 2.Z [g],L_AnteriorTibialis: Acc 3.X [g],L_AnteriorTibialis: Acc 3.Y [g],L_AnteriorTibialis: Acc 3.Z [g],L_Calf: Acc 4.X [g],L_Calf: Acc 4.Y [g],L_Calf: Acc 4.Z [g],R_Quad: Acc 5.X [g],R_Quad: Acc 5.Y [g],R_Quad: Acc 5.Z [g],R_Hamstrings: Acc 6.X [g],R_Hamstrings: Acc 6.Y [g],R_Hamstrings: Acc 6.Z [g],R_AnteriorTibialis: Acc 7.X [g],R_AnteriorTibialis: Acc 7.Y [g],R_AnteriorTibialis: Acc 7.Z [g],R_Calf: Acc 8.X [g],R_Calf: Acc 8.Y [g],R_Calf: Acc 8.Z [g]
0.0,0.0,0.0,0.0,0.0,0.0,0.0,0.0,0.0,0.0,0.0,0.0,0.0,0.0,0.0,0.0,0.0,0.0,0.0,0.0,0.0,0.0,0.0,0.0,0.0,0.0,0.0,0.0,0.0,0.0,0.0,0.0,0.0
0.03333333333333333,0.0,0.0,0.0,0.0,0.0,0.0,0.0,0.0,0.0,0.0,0.0,0.0,0.0,0.0,0.0,0.0,0.0,0.0,0.0,0.0,0.0,0.0,0.0,0.0,0.0,0.0,0.0,0.0,0.0,0.0,0.0,0.0
0.06666666666666667,0.0,0.0,0.0,0.0,0.0,0.0,0.0,0.0,0.0,0.0,0.0,0.0,0.0,0.0,0.0,0.0,0.0,0.0,0.0,0.0,0.0,0.0,0.0,0.0,0.0,0.0,0.0,0.0,0.0,0.0,0.0,0.0
0.1,5.16909263228786e-05,-4.70419652491822e-05,-3.82144563017125e-05,-1.0157026861650985e-05,-7.5841286877044505e-06,1.51064e-06,-7.70346379449679e-06,-5.2893968616509855e-06,1.8090444444444445,0.7091442222222223,1.4491733333333334,-0.8908691481481482,0.45267050000000003,-1.308027037037037,1.8023322222222222,0.7636021111111111,1.2317874074074073,-0.53667,0.6699050370370371,-0.6839297037037038,1.7985959259259259,0.5665098148148148,1.6708862962962963,-1.8253059259259259,1.172705925925926,1.707138888888889,1.4663266666666668,1.1030337037037037,2.013744074074074,-1.3166818518518522,0.9823276296296296,-1.311011111111111
0.13333333333333333,-2.4619251445086726e-05,-3.979969415542708e-05,-3.0556430122029556e-05,-8.806317514450887e-06,3.134589351316657e-06,-9.48138283236991e-06,-8.471151875401553e-07,-4.254980796403385e-06,1.0642887654320936,0.8600846172839506,1.633437901234568,-1.999669382716049,1.5398872839506172,1.8901086419753088,1.9600338271604938,1.3268274074074071,1.2315929629629632,1.070502839506168,1.504179382716049,-1.0554333333333328,-1.972710987654321,1.122228271604938,1.0257945679012281,-1.3184271604938276,1.232834197530864,1.5399867901234567,1.9436701234567901,0.9224002839506174,1.9246693827160493,-1.680086172839506,0.9688011358024692,1.9768927160493828
0.16666666666666666,-7.213423468208094e-06,-3.1883206936416183e-05,-4.735603031470776e-05,-8.04651879254978e-06,-1.1667470340398238e-06,-1.0902006936416189e-05,1.5147365317919056e-06,4.488916660244079e-06,-1.9581420987654323,1.001226049382716,1.4418614814814814,-0.7516650617283838,1.0865669135802474,1.9382501234567902,1.6905253086419758,1.4750872839506175,1.4164009876543209,-1.6619832098765435,1.889558024691358,-1.594596296296296,-2.048253950617284,1.0499181481481483,1.746476049382716,-1.3078790123456787,1.205133703703704,1.8003883950617283,1.6593914814814814,1.0507593827160493,1.8353976543209878,-1.92557,1.0073912962962963,2.0104616049382718
0.2,-1.62814e-05,-2.8614879190751483e-05,-5.5820062427745554e-05,-6.21042e-06,-2.940760809248518e-06,-4.743440404624259e-06,-8.450679075145016e-07,-4.55521815028922e-06,1.915120740740741,1.0646877777777777,1.4630474074074074,-1.5289914814814816,0.507426925925926,1.83993,1.432611111111111,1.477074074074074,1.2483522222222223,-0.7310763703703703,-1.1552496296296297,1.805458888888889,1.8439551851851852,1.0816933333333334,1.8197851851851852,-1.6107577777777777,1.275654074074074,1.8163522222222221,1.729071851851852,1.1325707407407408,1.8685692592592593,-1.9594355555555556,1.0094838148148149,-2.0322466666666665
0.23333333333333334,-1.2613248298008989e-05,-4.179985928066796e-05,-3.49714028901734e-05,-1.0781913872832371e-05,-3.3665806872190055e-06,-5.7464338728323714e-06,-6.003006127167629e-06,-1.2924493731534823e-06,1.8937864197530865,1.3527923456790123,1.439324074074074,-1.8874734567901235,0.7522630864197533,-1.9267597530864198,1.5934986419753085,1.6624307407407408,1.4382351851851851,-2.0150885185185183,-1.8600667901234569,-1.7400139506172838,1.9691323456790124,1.0744811111111112,1.8012316049382715,-1.8978164197530865,1.1218317283950616,1.8674286419753086,1.7200191358024692,1.0894013580246915,1.9635613580246913,-2.0011106172839503,1.0531513580246914,-0.2877045679012382
0.26666666666666666,-1.3964854807692314e-05,-2.9534994230769222e-05,-1.2737186891025622e-05,-6.88182e-06,-4.337180961538463e-06,-1.5811154807692313e-06,8.338862179488582e-08,-5.220003205128208e-06,1.98196,1.5006943209876542,1.3978002469135802,-1.8569855555555554,1.4969180246913578,-1.86713012345679,1.4823953086419752,1.6411919753086421,1.4040640740740742,-1.6934575308641975,1.8928874074074074,-1.7244483950617284,2.022095802469136,1.1016903703703704,1.69595,-1.7863612345679012,1.0978593827160494,1.8648913580246913,1.77045012345679,1.0775154320987654,1.9538146913580248,-2.04646975308642,1.0370861728395062,2.0485045679012344
0.3,-1.2383618882466274e-05,-4.4385603082851713e-05,-1.792173757225439e-05,2.666508786127195e-06,-4.084653410404603e-06,-4.849519017341006e-06,-1.5659431791907926e-06,-6.806465375722591e-06,2.013742222222222,1.6399988888888888,1.3105677777777778,-1.4931855555555555,1.5383944444444446,-1.4636444444444447,1.5334722222222221,1.442158888888889,1.3517488888888889,-1.7953188888888887,1.7165388888888888,-0.26139666666667427,1.99405,1.0993033333333333,1.8051622222222221,-1.802478888888889,1.1928488888888888,1.9210866666666666,1.702218888888889,1.1418211111111112,1.9582422222222222,-0.21171333333334075,1.0460322222222223,-2.049548888888889
0.3333333333333333,-1.7272113872832377e-05,-4.5327336480411115e-05,-4.9400953692999337e-05,-2.2299323249839447e-05,-5.072348542068063e-06,-3.8523369364161885e-06,9.117007597944817e-06,1.840189446371237e-05,0.47882802469136987,1.7009253086419753,1.3612479012345677,-1.3824807407407413,1.1152667901234568,-1.5685825925925916,1.6246302469135803,1.0588169382716055,1.5522680246913576,1.4366380246913586,1.9237259259259263,-1.6078702469135806,-2.0563644444444447,1.1174023456790123,1.72818,-1.7216623456790123,1.1378944444444445,1.8672793827160494,1.7569732098765432,1.09572,1.91348,-2.0394062962962964,1.0241553086419752,-2.0213046913580244
0.36666666666666664,-2.0193803468208105e-05,-2.918731560693648e-05,-2.527491213872837e-05,-7.946908265895948e-06,-5.932718265895947e-06,-2.911438265895947e-06,-6.652520661528788e-07,1.0450638998073352e-05,2.0246846913580243,1.4446472839506177,1.6065772839506172,-1.333793456790122,1.4356495061728392,1.5699256790123457,-1.476578765432099,0.7255063950617281,2.0201070370370373,0.8171687654321131,0.0,-2.00946987654321,1.9205413580246915,1.0518541975308644,1.7905937037037034,-1.6411453086419754,1.1207393827160492,1.8562406172839507,1.751198888888889,1.08363,1.940237160493827,-1.9799237037037034,1.002219975308642,-2.049003950617284
0.4,-1.475229710982656e-05,-2.3008920231213724e-05,-3.940773121387278e-05,-1.09102e-05,-4.743440404624259e-06,-4.407740404624259e-06,1.6949871618499882e-06,9.511126994220493e-06,-1.9011007407407412,0.519362666666666,-1.8484314814814806,0.8423822962962937,0.6637881851851862,0.5626311111111103,-1.9354140740740737,1.0223144444444445,1.9922562962962962,-1.8354488888888896,0.535327148148148,0.9774025925925804,1.84097,0.990982,1.9052733333333334,-1.6759566666666668,1.1327188888888888,1.7087788888888886,1.5574925925925924,1.1200392592592594,2.030456666666667,1.966895185185185,0.9505485555555555,1.9657033333333334
0.43333333333333335,0.000905421907692316,2.028826533333461e-06,-1.9240724615384807e-05,-1.0139385474359022e-05,-4.967044525640978e-06,-3.325996628205224e-06,-1.0048145294871779e-05,-8.423453371794776e-06,1.6059328395061725,0.7456487901234574,-0.40945261728395155,1.1833995061728282,1.0982059012345666,0.3285864938271607,1.9391903703703703,1.303952345679013,-1.7962638271604932,-1.6328908641975302,0.396124641975309,-1.1757407407407263,-2.0281187654320982,0.7847383456790124,-1.9667992592592591,-1.5654996296296295,1.2012043209876544,1.5743974074074072,1.436394691358025,1.0973618518518518,-1.9392918518518518,1.973756790123457,0.8225856543209877,1.8360941975308642
0.4666666666666667,-0.0002089639653179188,-2.860626660244068e-05,3.406846909441404e-05,-5.695981849710951e-06,2.2038163005780985e-06,-6.54612e-06,-9.460786005137526e-07,-2.495961361592743e-06,1.9628693827160495,1.1479909876543213,-1.0115213580246918,-1.1997630864197462,1.4706055555555553,1.5047754320987647,-1.8948804938271604,1.8380345679012347,-1.771541975308642,1.6051883950617287,0.4841020123456792,-2.0574067901234567,-1.9167623456790124,0.7983656543209876,-1.9147749382716048,-1.6541746913580249,1.2563127160493828,1.4117722222222222,1.5051698765432098,1.09169,-1.8483275308641975,1.9966385185185185,0.7597228271604939,1.7573180246913578
0.5,1.996795337186898e-05,-3.660953622350674e-05,-4.96895429672447e-05,-8.410894393063575e-06,-4.980176820809273e-06,-2.8780188246628023e-06,-1.1084146628131018e-05,-5.5635991907514345e-06,1.6483511111111113,0.8129868888888889,2.0271714814814814,1.669540740740741,1.0509634814814812,1.3287733333333334,-1.469612222222222,0.9496534074074072,-1.9175066666666665,-1.8851322222222222,0.6930311111111112,1.886925925925926,-1.8631988888888888,0.6840786296296296,-1.6638707407407407,-1.76846,1.333987037037037,1.247308148148148,1.3237003703703702,1.0766255555555555,-1.70401,1.910941851851852,0.6042572592592592,1.5201948148148148
0.5333333333333333,0.00020530975080282536,-4.6626582658959645e-05,-1.627758490687202e-05,-1.0313549775208686e-05,-5.107809338471506e-06,-7.109716531791929e-06,-6.318223468208071e-06,-7.298372601156053e-06,1.9614718518518517,0.7658899506172844,1.5687806172839505,-0.6677664567901231,0.7564402469135798,1.3643766666666668,1.6272175308642023,0.21012229629629528,-1.4492220987654314,-1.8826486419753132,0.0,1.1183466666666664,1.9773928395061728,0.14477333333333336,-0.9967015432098768,-1.6275693827160493,1.3212104938271605,0.8735124691358026,0.8960416049382715,0.4255160123456792,-1.643032962962963,1.9364558024691414,0.10379307037037047,1.33339
0.5666666666666667,9.931899306358381e-05,-6.175343962748881e-05,-3.131406242774569e-05,9.647796429030235e-06,3.632633468208094e-06,-2.2898434682080938e-06,-2.0019004046242815e-06,-8.655823872832375e-06,-1.8054106172839686,0.9370713456790145,1.6074240740740924,1.8214793827160676,0.6496135308641964,1.7522439506172847,-0.9681042962962969,1.2503398765432092,1.7152944444444445,-1.5661450617283927,0.6030634197530865,-1.3829251851852025,-1.344979506172839,0.9724309753086434,1.691471851851869,-1.5943927160493825,1.4004874074074076,0.964424790123457,1.3741740740740733,0.7175989259259271,-1.978533456790125,-1.8315174074074076,0.5023045061728408,1.2010565432098765
0.6,-0.00029241297687861276,-3.263548959537567e-05,-3.5472445664739896e-05,-1.72904404624278e-05,-4.029350231213901e-06,-3.3754188439306298e-06,-3.0047916184971722e-06,-8.001462369942215e-06,-1.7286266666666659,1.1463,1.0957243333333329,1.7747244444444423,0.9851657777777771,-1.6144866666666666,0.7291377777777797,0.46192088888888977,1.0509611111111112,-1.9904699999999997,1.6091144444444425,-1.0782619999999987,0.9157857777777784,0.2757207777777779,1.0800533333333338,-1.4394711111111111,1.1834466666666672,1.2179177777777774,1.0361928888888883,1.0760277777777778,1.51288,-1.7689111111111118,1.0321644444444444,-1.457376666666653
0.6333333333333333,8.10712e-05,-2.626234961538465e-05,-4.8124294102564136e-05,-1.350584961538465e-05,-2.4344986153846113e-05,1.0884372076923228e-06,1.5556379487179556e-05,-2.9814794230769103e-06,1.5616697530864196,1.5692771604938272,1.171415925925926,-1.625025925925926,0.8499383703703705,-1.4753304938271605,-1.235073580246916,1.062847728395062,1.4975601234567901,1.4859738271604936,1.2580502469135801,-1.7344882716049381,-1.2559101234567922,0.4343688024691358,1.4754780246913581,-1.5354125925925928,0.0,-1.1092945679012343,-0.8989762716049381,0.3357483950617284,0.961987037037037,1.6741193827160492,0.9416465679012347,-1.3380654320987655
0.6666666666666666,-2.7007313872832375e-05,-1.8901455491329503e-05,-3.672622774566475e-05,9.055879614643432e-06,-7.774207597944805e-06,-2.1656538728323753e-06,-1.7018344508670498e-05,-7.88891e-06,-1.3102192592592607,0.8946495555555566,1.567291111111111,-2.020452962962962,0.9740223703703715,1.8399779012345683,-1.6471574074074051,0.9167307901234574,1.9355106172839507,1.8011359259259243,1.1183517283950608,-1.947942962962962,1.8785171604938282,0.6668213209876543,1.6321941975308643,1.957243333333334,0.6179341481481468,-1.7193227160493814,-1.9466008641975312,0.8388981604938268,1.4762782716049383,-1.9204934567901244,1.5513754320987656,-0.871424864197532
0.7,-2.922418439306361e-05,-4.232291001926782e-05,-2.552603641618491e-05,-2.4738482080924557e-05,2.4181295953757397e-06,-5.887654932562561e-06,-1.597315323699465e-06,-7.88891e-06,1.788454814814815,0.8729652962962955,1.8136685185185184,1.9275074074074074,0.9832268148148146,1.6291048148148148,-0.7336159259259114,0.9857595555555552,1.8751374074074074,-1.6823703703703703,0.7630057407407407,-1.9573492592592594,-1.8114255555555554,0.8302942592592593,1.5744970370370373,-1.965704814814815,1.2844588888888886,1.9010996296296299,-1.8124762962962957,1.441118148148148,1.4318688888888884,-1.8833462962962955,1.5792770370370366,-0.99501
0.7333333333333333,-1.587539486191403e-05,-3.167434161849742e-05,-3.238261040462436e-05,1.7263920809248712e-05,-6.094423468208119e-06,-1.55559786769507e-07,-8.24919573538841e-06,-4.983626531791882e-06,-1.7507038271604944,1.2612311111111116,1.6674514814814814,1.9812649382716039,1.104074938271605,1.9706767901234563,-1.5543565432098763,1.135705061728395,1.9966371604938271,1.945805185185186,1.1307830864197528,-2.000414814814815,-2.0303,0.9947119135802468,1.48647,-1.7863113580246914,0.9839210123456802,1.5078069135802472,-1.5861372839506183,1.4502690123456794,1.4715043209876544,1.3215067901234585,-1.5154176543209892,-1.7548355555555546
0.7666666666666666,-2.0554378933847164e-05,-2.863980892742447e-05,-2.8611133204881205e-05,-1.2713536416185103e-05,-8.89601e-06,-5.117298259473609e-06,-6.283813005781662e-07,-5.721207861271633e-06,-1.9355645679012343,1.0602088888888883,1.7541824691358028,-1.7203671604938269,1.026195185185185,-2.0245883950617283,-1.846789506172839,1.0605106172839507,1.9675416049382717,1.9016429629629628,1.040364814814815,-2.0078216049382718,-1.9128332098765433,1.0797020987654316,1.3871065432098775,-1.648003827160494,0.6712976172839504,1.8277906172839495,-1.6331816049382717,1.5315288888888883,1.5360056790123462,-0.3874187654320689,-1.7428946913580228,-0.41532283950614235
0.8,-8.610342211538424e-06,-3.540328846153852e-05,-2.70237e-05,8.992838365384162e-06,-3.2391696153845774e-06,-3.938041346151114e-07,1.2835598750000221e-05,-2.474163557692315e-06,-1.8563388888888885,1.1830022222222218,1.6968451851851856,-1.7990429629629632,1.1618170370370369,1.8041174074074078,-1.8436522222222218,1.0676692592592594,1.9677903703703705,1.9886822222222218,1.1113874074074073,-1.9634670370370368,-1.9151218518518516,1.3742718518518522,1.4839377777777776,-1.7065422222222224,0.9502505925925931,-1.7438374074074072,-1.5001970370370368,1.5376462962962958,1.594045555555556,-1.8767766666666672,2.0362703703703704,-1.4649862962962965
0.8333333333333334,-1.62814e-05,-3.120975561978164e-05,-3.867078670520237e-05,-2.904587745664758e-05,-3.881012658959526e-06,-1.4901573410404737e-06,8.994430905587522e-06,-7.792758696210621e-06,-1.7403603703703705,1.1159603703703707,1.6806786419753081,-1.7856193827160491,1.0458874074074074,-2.0449274074074073,-1.7464791358024692,1.09572,1.9566502469135802,0.17232530864195827,1.0620019753086418,-2.00096024691358,1.9927527160493832,1.4592722222222227,1.409835061728395,-1.855792716049383,1.493933827160494,-1.9893234567901235,-1.4643887654320984,1.3347876543209876,1.64646024691358,-1.9726653086419752,1.82486,-1.710772716049383
0.8666666666666667,-1.7242791329479766e-05,-4.048166936416188e-05,-4.121451734104047e-05,8.265259987153502e-07,-5.70687e-06,-6.406729222864587e-07,-3.967688008991633e-06,-4.2190843352601175e-06,-1.9108451851851853,1.142467901234568,1.5788296296296298,-1.9153685185185183,1.1344118518518518,1.9989258024691359,-1.7159904938271606,1.0884062962962964,2.026922839506173,-1.913183580246914,1.0336044444444445,-2.004344938271605,-1.959885432098765,1.5338707407407408,1.4325118518518518,-1.6214954320987651,1.3747227160493827,-1.4571812345679007,-1.41410950617284,1.1764869135802467,1.7144979012345678,-1.8779723456790125,1.4020769135802469,1.50214012345679
0.9,-1.1917266666666667e-05,-2.40024e-05,-3.59757e-05,-1.2364899999999999e-05,-4.19623e-06,-2.56809e-05,-5.315226666666667e-06,-9.28766e-06,-2.0088233333333334,1.0957233333333334,1.8449966666666666,-1.82217,1.0379833333333333,1.8678233333333334,-1.81277,1.0984099999999999,2.0397033333333336,1.8960233333333334,1.0540933333333333,-0.6848266666666667,0.7197366666666667,1.5885233333333333,1.5442133333333332,-1.5066166666666667,0.85536,1.45425,-1.7228066666666666,0.8526743333333333,1.68252,-1.18703,0.005371173333333333,-0.992322
0.9333333333333333,-1.5808573988439297e-05,-3.0517826011560704e-05,-3.742636127167624e-05,-1.9822690879897177e-05,-9.968518535645507e-07,1.389053468208094e-05,8.275821342324966e-06,-1.6887313294797655e-06,-1.8171003703703703,0.9459729876543209,1.9039346913580248,2.05447,1.0045093950617285,1.6699916049382715,-1.6821267901234567,1.0806493827160495,-1.8996043209876543,1.7977545679012346,0.9576607037037037,1.8977634567901234,1.9647554320987655,1.3039479012345676,1.9280043209876545,1.1925023456790127,1.322852469135803,1.3916288888888884,1.8820514814814815,0.9803386666666667,1.9298930864197532,1.0305717530864191,0.7367463456790124,-0.9169286419753022
0.9666666666666667,-1.554970974358974e-05,-3.0318724615384622e-05,-3.879555282051287e-05,-1.6010244102564172e-05,8.228912102564166e-07,-1.061065774358971e-05,-2.8241738461538388e-06,-1.0941151282051279e-05,2.021601111111111,0.7670837654320988,-1.981763086419753,2.01419,1.04738,1.5023830864197532,-1.4107758024691357,1.2013058024691359,-1.703361111111111,1.7822316049382716,0.906386,1.7143983950617283,-1.646416419753087,0.7316733580246914,-1.4892576543209892,-1.191602962962962,1.896176419753087,0.8311391851851839,1.6922190123456797,1.2429762962962956,1.8588255555555557,0.9259775308642134,0.23712725925925987,-1.6380086419753095
1.0,-1.1013294049904134e-05,-2.9399373512476032e-05,-3.38150205374281e-05,-2.2065520537428102e-05,-1.0651820537428102e-05,8.650190518234426e-07,-1.1710743570057543e-05,-6.75295320537415e-06,-1.867378888888889,0.7795661481481481,-1.4485740740740667,-2.0513385185185182,1.0370811111111111,1.5533166666666667,-1.5576422222222224,1.1000514814814812,-1.7219096296296297,2.0258307407407408,0.813733,1.758161111111111,-1.5710725925925928,1.0193295185185187,-0.9034016296296298,-1.8090414814814813,0.8840058518518521,1.5119877777777775,1.7775570370370375,0.8689368518518521,-1.9749503703703704,-1.343535185185178,0.5512912592592593,-1.5563003703703704
1.0333333333333332,-1.7415413461538487e-05,-3.176438653846151e-05,-3.4969669871794736e-05,-9.821336923076974e-06,-1.1946352179487366e-05,-9.485636923076973e-06,-7.611315576923449e-06,-7.21752e-06,2.0296043209876546,0.7985148518518528,2.012797777777778,-1.8285417283950618,0.9957065432098763,1.61538,-1.7351860493827163,0.9704919012345681,-1.7751269135802474,1.9597312345679019,0.727744518518519,1.8106812345679018,-1.966050740740742,1.1221795061728401,-1.4699593827160469,-1.5586837037036976,1.3985465432098763,0.8489445308641979,-1.698290617283945,1.42605,-1.9544656790123454,-1.8855330864197568,0.4768910987654304,-1.6306027160493817
1.0666666666666667,-2.0651921794871837e-05,-3.0152596153846126e-05,-3.45037846153845e-05,-6.761312307692252e-06,-2.7600415384615495e-05,-8.022332435897575e-06,-2.522469230769225e-05,-8.439802307692252e-06,-1.977541975308642,0.6882562098765433,-1.9608254320987655,-1.9060167901234566,1.0915904938271606,1.4979632098765432,-1.6667554320987656,0.9462721234567901,-1.6832632098765432,1.9654522222222224,0.7314740864197532,1.6583969135802472,-1.4845288888888886,1.0211181481481475,-1.5170539506172827,1.6586441975308637,0.8645599012345685,1.6482548148148144,1.4428562962962963,0.7860315679012355,-1.925762222222223,1.9408393827160508,0.9125025061728383,-1.9178553086419858
1.1,-1.7127105769230814e-05,-3.2220594230769185e-05,-3.40734e-05,-7.714609423076879e-06,4.648116153843508e-07,-4.060663653846374e-06,-1.013548653846198e-06,-6.968972884615407e-06,-1.8632003703703715,0.5111564074074076,-1.7017703703703695,-1.977790740740741,1.0716992592592591,1.2589485185185174,-1.4988581481481478,0.7419679999999996,-1.4588670370370367,1.8253074074074072,0.41626581481481406,1.4952759259259254,1.7814403703704467,0.1841117037036909,1.3308615555555683,-1.2768507407407408,0.7643482222222251,1.080951111111108,1.4448455555555542,0.5715828518518611,-1.7174292592592675,1.2496966666666685,0.16501433333332438,1.3721861111111233
1.1333333333333333,-9.256239743589664e-05,-2.711838461538465e-05,-3.211084615384605e-05,-1.0144118205128172e-05,-9.076768717949016e-06,3.576478974358875e-06,-5.1602843589742266e-06,-3.817494358974227e-06,-1.7214137037037016,0.34111965432098706,-0.8847521234567882,-2.04642,1.244423703703704,1.046981975308642,-1.844306419753087,0.5018568271604933,-1.5239230864197528,1.4698087654320977,0.40482733333333315,1.5283511111111108,1.956054691358024,1.4537006172839524,1.5523212345679316,-1.765030123456789,0.9619379135802467,1.7324566666666683,1.6207990123456804,1.0686623456790119,1.7124072839506168,-1.9407307407407397,0.6578195802469136,-1.1247639506172815
1.1666666666666667,-0.00018743166666666914,-3.274459166666662e-05,-3.37097250000001e-05,-1.05745e-05,-6.322319999999618e-06,-6.266369999999809e-06,-3.329005833334002e-06,-8.812126666670966e-07,1.3212124691358023,1.2368599999999992,1.2406424691358022,2.0013123456790125,1.2790896296296295,1.333195802469136,-1.0451903703703693,1.0627995555555558,1.4114253086419746,1.4275377777777778,1.1087040617283954,-1.9024435802469133,-2.0333381481481485,1.1287390000000006,1.1855902469135804,-1.2690375308641977,0.9948151604938275,-1.7026104938271602,-1.192496666666666,0.573522135802469,1.5558009876543208,-1.373281604938272,1.581610493827161,-1.9803213580246914
1.2,2.8895873076922886e-05,-2.9786769230769152e-05,-3.598430769230746e-05,-8.411827307692289e-06,-7.895374615384442e-06,-2.065834999999614e-07,1.7688707692308464e-06,-8.818540769230846e-06,-0.9001196666666675,0.48698622222222077,1.2998222222222227,-1.7671155555555564,0.4574448888888907,-1.1677799999999705,1.0531955555555308,0.4757967777777793,1.263117777777779,1.900949999999997,1.6726755555555557,2.0074766666666672,-1.9461577777777777,1.5979277777777783,1.2541733333333334,-1.7975577777777758,1.005754666666666,-2.03388111111111,-2.01553111111111,1.0464866666666663,1.5938988888888888,-1.6655111111111112,1.1104888888888902,-1.7590588888888887
1.2333333333333334,-7.6113150641025315e-06,-4.873865576923077e-05,-4.234108846153847e-05,-6.987264230769234e-06,-6.5170690384615546e-06,-8.138536217948703e-06,-1.1082353846153875e-05,-8.751831153846172e-06,1.6910771604938246,0.5541757901234567,1.3842190123456808,-0.641805666666668,0.040383251851852764,-1.2216462962962953,1.3382171604938344,0.6256919506172852,1.1176993827160504,-0.642203333333333,0.7927957530864177,-0.919117703703699,1.5083087654320986,0.6004774691357995,1.6591981481481488,-1.6604902469135823,1.0520070370370371,0.8830088888889542,1.4043618518518535,0.956964629629629,1.8376876543209892,1.9403879012345666,1.0336012345679015,1.965702222222221
1.2666666666666666,-1.3023364102563948e-05,-2.426065641025634e-05,-3.6100461538461404e-05,-8.551702307692396e-06,-7.393977692307604e-06,-6.808654615384505e-06,-9.855753846156053e-07,-1.96384e-05,-1.8835432098765421,0.8769441358024692,1.6293575308641972,-1.6219446913580242,1.4468337037037033,0.633750123456772,1.9314339506172842,1.283564691358024,1.2526807407407408,-1.6514891358024677,1.0769227160493817,-0.6268360864197521,1.9585895061728393,0.928567135802469,1.8764806172839503,-1.5341662962962965,1.1334166666666663,1.4954251851851854,1.7459781481481482,1.028633086419753,1.819731975308642,-1.779451975308642,0.9418949999999997,1.9200933333333339
1.3,-1.3118073076922967e-05,-1.0545416346154149e-05,-4.889253269230767e-05,-1.1149063461538517e-05,1.7946955769232977e-06,-2.85344e-06,-1.1720413461538764e-05,1.852155192307775e-05,1.9627177777777776,0.9518914444444443,1.534813703703704,-0.38090296296295323,1.2031422222222226,1.9181051851851851,1.9357111111111116,1.5448122222222223,1.398441111111111,-1.8326129629629635,1.85589037037037,-1.5928522222222221,2.0043425925925926,1.0984025925925927,1.8112774074074074,-1.2452159259259257,1.317874814814815,1.7156407407407404,1.5370529629629628,1.0939329629629628,1.9442174074074074,-2.012402962962963,0.9656178888888888,1.9673403703703707
1.3333333333333333,-1.4328635294117755e-05,-1.1978735294117756e-05,-3.5782617647058875e-05,-4.516571176470561e-06,-4.516571176470561e-06,-4.257665294117756e-06,8.096257712420751e-07,-7.470935163397061e-07,1.9637106172839507,1.0346479012345673,1.4781665432098767,-1.6633776543209886,0.6517523703703715,1.7712467901234572,1.3997406172839506,1.4393732098765428,1.3052,-0.5472630123456801,-1.1062618024691386,1.7808450617283964,1.967637037037038,1.0808485185185182,1.8928424691358028,-1.5535616049382714,1.2116491358024688,1.8217208641975313,1.7400112345679013,1.1303328395061727,1.9274559259259259,-2.0001158024691366,1.0130106172839506,0.108072839506125
1.3666666666666667,-2.0066252941176634e-05,-2.5588747058823365e-05,-1.170666470588317e-05,-1.2253e-05,-9.644207777777913e-06,-1.51064e-06,1.17494e-06,-7.893306405229956e-06,1.8796128395061726,1.2743583950617285,1.49453,-1.7906404938271612,0.7107855061728404,-1.9806704938271595,1.5373480246913587,1.6146390123456793,1.4959183950617285,-0.14915012345674317,-1.8727487654321004,-1.8309730864197515,2.008668024691359,1.0395687654320986,1.8637516049382714,-1.8961267901234573,1.1850909876543207,1.7755202469135807,1.694955555555556,1.08766,1.96988,-1.9421775308641973,1.0438475308641972,2.0483106172839505
1.4,-1.2152921153846402e-05,3.098757884616487e-07,-3.939940961538445e-05,-7.985746538461484e-06,5.03548e-07,-6.88182e-06,-7.753345961537965e-06,-8.04707923076981e-06,1.9652548148148143,1.4534996296296294,1.4478318518518518,-1.8658862962962965,1.3186248148148116,-1.8925937037037035,1.473343333333334,1.570023333333334,1.460813333333333,-1.650444074074075,1.9091555555555564,-1.730713333333333,1.9589862962962972,1.1369014814814813,1.6507385185185186,-1.90034925925926,1.0587196296296295,1.9085585185185188,1.773976666666667,1.1336177777777776,1.971372592592593,-0.3944855555556246,1.0964662962962965,0.37568703703710704
1.4333333333333333,-1.6350235897436053e-05,-3.9668399999999425e-05,-1.789531794871775e-05,-1.2851210256410147e-05,-1.8377323076923958e-06,-5.0483864102562786e-06,-1.0329171794851951e-07,-1.5386199999998853e-05,1.9588880246913583,1.560678148148148,1.4138141975308642,-1.4012798765432102,1.7125579012345684,-1.7364328395061734,1.5110908641975305,1.3949145679012347,1.4674280246913582,-1.6186170370370367,1.5242688888888887,-1.99062012345679,2.003648888888889,1.02783012345679,1.785963086419753,-1.7159407407407408,1.1696230864197532,1.9297458024691359,1.6973430864197532,1.094326913580247,2.0047403703703703,2.03836,1.0100319753086417,-2.025032716049383
1.4666666666666666,-1.4516823076922668e-05,-2.9498411538461334e-05,-1.4502819871793802e-05,-1.7077611538461336e-05,-2.958884230769333e-06,-6.88182e-06,-2.268116923077331e-06,1.082412435891826e-06,1.985347530864197,1.6705830864197526,1.3880486419753086,-1.4576275308641968,1.167735308641976,-1.4315683950617262,1.712561851851851,1.252872592592593,1.4513643209876543,1.674567407407412,-0.8784841975309305,-1.9172611111111142,-2.0372682716049386,1.1290943209876543,1.72415,-1.7350856790123457,1.1187456790123458,1.8899070370370372,1.7914856790123457,1.0686643209876543,1.9508843209876543,0.9003158024692017,1.0238070370370371,-2.0314443209876543
1.5,-1.3408538461538473e-05,-3.97673384615378e-05,-4.3873169230769384e-05,-1.0271124230769308e-05,-1.4267163846155282e-06,-5.9909238461537805e-06,-5.9392788461540005e-06,3.111665384616003e-06,-1.8991555555555553,1.5862911111111104,1.4954233333333335,-1.1198911111111134,1.0769188888888894,1.6305966666666667,-1.8168022222222204,0.6745303333333323,-1.9980733333333323,1.931382222222223,0.404180777777774,2.0083744444444434,2.006136666666666,1.0885599999999995,1.798448888888889,-1.68834,1.1377911111111112,1.8526044444444443,1.760402222222222,1.1104944444444445,1.956001111111111,2.046867777777778,1.0290255555555554,-1.1445066666666368
1.5333333333333332,-1.4043400000000764e-05,-1.5162403333337156e-05,-1.6365324999999714e-05,-3.580779999999809e-06,-6.993658333366781e-08,-4.140280000000191e-06,-9.777217499999283e-06,5.497060833335771e-06,-1.949783333333333,0.8880840617283955,1.2934053086419834,1.8243116049382726,0.9420940617283954,0.9471667901234574,-1.8917462962962963,0.9418948395061726,1.8434062962962963,-0.9025074814814809,0.5824739753086414,-1.336580987654329,1.748966790123457,0.9586052962962962,1.8148596296296295,-1.649052839506173,1.1408276543209879,1.763934074074074,1.5847453086419754,1.1226264197530864,1.9597303703703703,-1.9919603703703703,0.9701935308641976,1.9906667901234567
1.5666666666666667,-0.0004491734615384697,-3.72840692307693e-05,-4.02623307692307e-05,-1.0626148974358875e-05,-6.980808461538379e-06,-1.700009230769297e-06,-5.736999743589579e-06,-2.1463230769230705e-05,1.9331223456790152,0.12721724938271162,-0.402838,1.240744320987647,1.8608172839506218,0.25861175308641965,1.8458975308641983,1.1567401234567882,-1.9974281481481495,1.1619613580246857,0.23493924691358103,-1.7934767901234572,1.6320890123457255,0.8661514320987659,-1.9953455555555564,-1.583548024691358,1.1593322222222218,1.6311437037037042,1.4566371604938269,1.093282098765432,-1.9666967901234573,1.852212222222222,0.8193525061728393,1.8607637037037041
1.6,-0.00025995332692307715,-1.5671303846153952e-05,-3.465762115384617e-05,-7.5661263461537855e-06,-3.18914e-06,-6.049025769230739e-06,-1.9367196153834035e-07,-5.216236346153786e-06,1.5366085185185205,0.8308911111111141,-0.7094423703703732,-1.2944548148148218,1.0227592592592618,1.5395859259259261,-2.0593970370370362,1.6258270370370378,-1.7304177777777785,1.689834444444441,0.46430840740740775,-1.8912481481481502,-1.8902051851851855,0.812539407407407,-1.965104074074074,-1.579278888888889,1.257456666666667,1.4332048148148144,1.4487277777777774,1.106914444444444,-1.919749629629629,1.958387037037037,0.7519642222222217,1.7906903703703696
1.6333333333333333,4.962311410256484e-06,-2.9253092307692342e-05,-6.249589999999952e-05,-5.646616153846172e-06,1.0608948717948811e-06,-4.209141538461484e-06,7.204605256410311e-06,-1.3468802564102627e-05,1.5784817283950612,1.124664320987654,-1.6795829629629633,1.5870804938271605,1.315986913580247,0.8871885679012349,-1.4937824691358021,1.490846543209876,-2.0120018518518523,-1.9280566666666663,0.5761584567901235,-1.8459945679012344,-2.0025077777777778,0.6806975185185186,-1.7813358024691357,-1.7233541975308644,1.2488995061728394,1.3257377777777777,1.3616895061728396,1.067719012345679,-1.7973562962962961,1.886374074074074,0.7055637901234567,1.65969
1.6666666666666667,3.0074057051282237e-05,-6.823282692307698e-05,-4.082828653846151e-05,-7.405813269230757e-06,-2.4746237179574017e-08,-6.460043076923027e-06,4.21775288461588e-07,-4.67503166666658e-06,-2.00156098765432,0.9503998518518542,1.7358385185185166,-0.7704659999999843,0.27577024691357643,1.585892098765429,1.1706182716050202,0.0,-0.9940646172839398,-0.9292139999999871,1.6867940740740799,0.882116271604934,2.0162787654320984,0.4812672839506157,-1.602402716049382,-1.6950535802469129,1.2699848148148145,1.1634602469135782,1.0721933333333311,0.7661878641975273,-1.772838271604938,1.9364053086419744,0.40945248148147967,1.38979
1.7,-0.00022335584615384467,-4.299521538461627e-06,-3.21108461538462e-05,-1.1891476923076901e-05,-8.302079230769297e-06,-1.3040553846154949e-06,-5.9005430769230995e-06,-1.4589943076922636e-06,1.3062388888888266,0.2528926296296304,-1.4236625925925341,-1.4164977777777752,1.0646866666666686,1.4654348148148122,-0.882662740740742,1.4160511111111105,1.6767025925925936,1.8326144444444332,0.30197977777777213,1.7845692592592541,-1.265803333333276,0.48683751851851326,-1.0634894074073968,-1.68610037037037,1.351592592592592,0.9718839999999996,1.4888599999999967,0.43804937037036895,-1.6276177777777783,-1.7727855555555565,0.23066237037036832,1.204631851851854
1.7333333333333334,0.00010141976730769278,-4.7350665384615426e-05,-3.260905256410257e-05,-8.618411923076865e-06,-6.152318076923135e-06,-2.0023544230769907e-06,-4.288762692307712e-06,-1.1929121794871726e-05,-1.8102346913580247,1.0958148148148135,0.9820297283950612,1.0817414814814819,0.4698288518518543,-1.7526417283950602,0.953633456790151,0.8757510864197519,1.325838641975307,-1.3978012345679032,0.7692719259259266,-0.678458975308642,1.153757777777805,0.5561650987654301,1.8686719753086412,-1.473741111111111,1.4639916049382715,1.0238567901234568,0.7764332839506175,0.934585,1.6732186419753083,-2.041741111111111,0.9123043086419751,1.5947874074074095
1.7666666666666666,-3.05572564103505e-07,1.1891426923076747e-05,-3.700431923076976e-05,-4.4970685897436956e-05,-3.012682307692249e-06,-8.543094615384498e-06,9.849332948718155e-06,-1.67849e-06,0.9347844444444378,1.6346261728395057,1.266304938271605,-1.270826049382716,0.8785353703703704,-1.6119986419753087,1.1756915802469128,0.5803359382716046,1.4649875308641973,1.0183324691357967,0.8640648148148091,1.7746764197530864,0.9607443333333331,0.40204270370370376,0.9793913827160492,-1.2141828395061731,0.21604060370370481,1.4935882716049382,-0.9434353086419691,0.6497627283950622,1.3937196296296297,-1.7704988888888886,0.8548122962962962,-1.3403102469135804
1.8,1.0555129807691825e-06,-3.0261301923076876e-05,-3.775964423076919e-05,-1.3130984615384505e-05,2.2672544230769313e-05,-4.751426153846126e-06,-7.294985769230907e-07,-7.162645961538468e-06,-0.3773233333333734,1.0970599999999973,1.5039266666666677,-1.6784933333333325,1.2474566666666667,-1.9712200000000022,-0.9023573333333343,1.2353699999999992,1.7859166666666677,1.0272363333333363,0.6834820000000021,-1.5549566666666683,-1.2850499999999974,0.5236893333333347,1.5361566666666668,-1.5871800000000016,0.0,-1.1292866666666692,-1.4045633333333387,0.4901200000000011,1.2367166666666696,-0.6351400000000433,1.2998233333333356,-1.2595433333333315
1.8333333333333333,-2.3167453846153876e-05,-2.9416638461538468e-05,-3.424555384615388e-05,-8.370940769230766e-06,-1.032916923076813e-07,-5.452944358974345e-06,-3.894962051282e-06,-6.795743076923062e-06,-1.665412962962956,0.6214153209876534,1.7781081481481482,1.8068514814814827,0.8191043209876521,1.6982844444444447,1.8893620987654351,0.725109,1.9474990123456781,-0.40875876543201795,0.9288152222222261,-2.0191632098765426,-1.9799780246913596,0.7778756666666651,1.6104107407407413,2.0095171604938264,1.0447933827160467,-1.9103992592592587,-1.6078693827160504,1.2445209876543188,1.2410403703703692,-1.693014814814817,1.5879262962962966,-1.1314306172839497
1.8666666666666667,-1.1198557692307675e-05,-2.778014743589741e-05,-3.184185576923081e-05,-7.355241666666831e-06,-7.517713269230756e-06,-8.39246e-07,1.8106230769230706e-05,-3.896036730769244e-06,-0.1793359259259386,1.3428422222222223,1.768212098765432,1.9305390123456792,1.1919513580246914,1.7799964197530866,-1.6643639506172836,1.1029785185185186,-0.18928395061729697,-1.6232392592592595,0.9843180246913581,-0.181223950617297,-1.9758983950617286,0.8653064320987656,1.5107403703703701,-1.9797762962962964,1.2517806172839505,1.7935218518518516,-1.7738304938271603,1.5253623456790122,1.493733086419753,1.8466933333333329,-1.9942507407407406,-1.4570298765432101
1.9,-1.3339088235294195e-05,-3.04596882352942e-05,-3.554780980392148e-05,-1.1805417843139008e-05,-6.335484705882366e-06,-4.617500588235269e-06,1.2983643725490583e-05,-5.002565686274368e-06,-1.9382518518518521,0.9574118888888891,1.8067996296296296,-1.631345925925926,0.9694968888888891,2.0355244444444445,-1.5877825925925921,1.1182529629629632,2.014339259259259,1.845,1.102734814814815,0.08205703703706191,-1.9425759259259257,1.083485925925926,1.5207903703703696,-1.8925933333333338,0.7169030000000006,1.4351451851851849,-1.549885555555555,1.398293333333333,1.6446244444444449,1.3524922222222204,-1.4051588888888886,-0.09175481481483905
1.9333333333333333,-1.3838939743589757e-05,-2.9408030769230717e-05,-3.673748076923105e-05,3.629630897435904e-05,-5.435733205128359e-06,-6.88182e-06,-2.5866015384614354e-06,-1.4288705128203842e-06,-1.924821111111111,1.2715255555555556,1.6450186419753088,-1.8282390123456789,1.24074,1.845893950617284,-1.9959845679012347,1.0439967901234568,1.9423267901234569,1.9815661728395062,1.0827402469135803,-1.9688351851851853,-1.8591754320987655,1.2054327160493827,1.413313209876543,-1.6876470370370371,0.8303935308641974,0.3617613580246979,-1.4933343209876544,1.6058813580246913,1.603693827160494,-1.843357160493827,-0.3405219753086486,-1.5387912345679013
1.9666666666666666,-1.0120447756410214e-05,-3.196021153846162e-05,-3.622532307692324e-05,-1.4226313461538917e-05,-1.3922842307691895e-06,-5.104338012820596e-06,5.422817371797353e-07,-5.292628333333189e-06,-1.9134309876543223,1.0370377777777773,1.790888641975309,-1.792875925925927,1.017143345679013,2.0467149382716046,-1.8375434567901228,1.0511114814814817,1.9678862962962955,1.8012834567901228,1.0479244444444453,-1.950333456790123,-1.955009506172837,1.435247901234568,1.4263449382716047,-1.68470938271605,1.1430172839506143,-1.7618954320987639,-1.422613456790123,1.4176914814814818,1.6853028395061727,1.8383828395061728,2.035425308641977,-1.5546550617283954
2.0,-1.76242e-05,-3.66040615384614e-05,-3.471897692307719e-05,-1.2459586153845757e-05,-1.67849e-07,-9.877278461538152e-06,1.4589938461538022e-06,-6.003836923076747e-06,-1.874841851851852,1.1947881481481482,1.5598785185185184,-1.896767037037037,1.0984037037037038,2.0094166666666666,-1.6778925925925925,1.094525925925926,1.9545133333333333,-1.9736074074074075,1.04738,-2.0238918518518516,-1.8327648148148148,1.6288092592592593,1.3832296296296296,-1.9355622222222222,1.466925925925926,-1.635523703703704,-1.4075448148148149,1.3383185185185185,1.57913,0.8285055555555607,1.7413055555555557,-0.8504340740740786
2.033333333333333,-1.4968726923076556e-05,-2.898307371794734e-05,-3.530322628205266e-05,-4.502336282051439e-05,-7.027074807692583e-06,-5.9500373076913895e-06,-3.890656923076555e-06,-7.55322e-06,-1.9279037037037021,1.040265308641975,1.7208141975308633,-1.9191495061728387,1.0481209876543227,1.9630164197530868,-1.7840777777777768,1.0770175308641985,1.980071728395062,-1.9868885185185161,1.0165951851851862,-1.97391,-1.0792096296297733,1.576988271604938,1.4267441975308635,-1.1478880246913599,1.1085509876543227,-1.4929907407407232,-1.67581,0.9297606543209952,1.7807443209876523,-1.6984885185185268,0.8056767283950734,1.5907640740740636
2.0666666666666664,-2.005587307692299e-05,-3.0217153846154016e-05,-3.825673846153795e-05,-1.6881748717947575e-05,3.0255938461540154e-06,3.223566615385968e-06,-1.7387488461539054e-05,-1.1835498846157227e-06,-1.7737338271604948,1.0549874074074108,1.817244320987651,-1.3242903703705629,0.9764106172839491,1.7888522222222254,-1.8251039506172873,1.0058544444444435,-2.00374703703704,1.88179901234568,0.9687512345679018,2.001657407407411,-1.8741916049382692,1.5146188888888945,1.6992298765432003,1.1821063456790293,0.732469160493812,1.6202029629629673,1.7487114814814835,0.9605455308641992,1.8044660493827127,-1.3600972839505825,0.06196745679010657,-1.1080572839505898
2.1,-1.0442184615384684e-05,-3.23949e-05,-2.3431142307692763e-05,2.9386511538461044e-05,-4.499649999999807e-06,2.22077461538456e-06,-6.736565192307541e-06,-9.75462730769228e-06,2.04239,0.777478,-1.98196,-1.6046377777777479,1.0872122222222222,1.530782222222222,-1.4435044444444443,1.1619611111111112,-1.716091111111111,1.84097,0.8813207777777777,1.7228066666666666,1.4703599999999721,0.6458834444444442,1.5428744444444158,-1.2322355555555549,1.5249655555555266,0.04207422222222499,-1.4233655555555274,0.994115111111113,1.8423177777777786,1.0661811111111137,0.17590626444444304,-1.8799066666666633
2.1333333333333333,-1.738318461538469e-05,-3.1267292307692344e-05,-3.4026007692307656e-05,-8.388141025640566e-06,-4.411422307692345e-06,-5.53902e-06,-1.2098043589743534e-05,-8.573221538461484e-06,-1.970278024691358,0.7645972469135803,-1.9785365432098765,2.041792962962963,1.014950987654321,1.442558024691358,-1.5124306172839503,1.173703827160494,-1.703810987654321,2.01419,0.8163685061728396,1.7005765432098765,-1.5385897530864194,0.7727031604938263,-0.45237258024691346,-1.6061776543209882,0.5667580864197528,1.7060920987654324,1.1546580246913563,1.223927407407408,1.9835516049382713,-1.8259033333333496,0.48400279012345676,-1.447036790123457
2.1666666666666665,-1.7060396153846316e-05,-3.098539038461579e-05,-3.177729807692316e-05,-1.296527089744277e-06,-5.546558525641793e-06,-3.86053e-06,-3.3914175641033728e-06,-6.371814230769473e-06,1.9906665432098773,0.7649951234567897,-1.9619195061728396,-1.9102458024691369,1.091441358024691,1.5106897530864198,-1.6998307407407407,1.0190804938271603,-1.71206,1.901847530864198,0.7455493950617288,1.7244483950617289,1.9047828395061113,1.253327283950618,-1.3184254320987618,-1.6589440740740733,1.4619518518518513,0.8910180000000009,-1.5926522222222241,1.3638296296296275,-1.987980370370308,2.0537738271604926,0.5434341234567897,-1.6477093827160496
2.2,-1.628785384615389e-05,-2.9657653846153494e-05,-3.187203076923064e-05,-6.345991153845933e-06,-2.307276923076976e-05,-1.0135553846154288e-06,-1.1226534230766804e-05,-5.668135769230504e-06,1.9810651851851857,0.6475249999999985,-1.8770792592592571,-1.8769314814814817,1.1618133333333345,1.3844159259259243,-1.7126570370370366,0.9832233703703702,-1.5891211111111123,1.8726029629629632,0.7185439999999992,1.5551070370370348,-1.7256359259259166,0.9808364444444498,-1.1907603703703735,1.6696881481481451,1.0858729629629553,1.3156370370370485,1.6556633333333248,0.8050796296296172,-1.913926296296294,1.686102962963112,0.8950463333333478,-2.005090370370377
2.2333333333333334,-1.5018221153846124e-05,-3.351286217948708e-05,-3.4192819871794825e-05,-5.985544038461435e-06,-1.2287430769231003e-05,-6.3696623076922495e-06,-7.169101730769186e-06,-3.877747756410374e-06,-1.8997581481481485,0.44421616049382695,-1.5402362962962926,-2.0517349382716055,1.1204372839506171,1.0588688888888864,-1.410477283950617,0.6181331728395042,-1.421673086419754,1.8424653086419767,0.3594215185185175,1.4573771604938281,-1.5680308641975438,0.06838306172838116,1.561817987654352,-1.1753958024691369,0.5831706296296373,1.2087665432098709,1.7102729629629652,0.41775827160495166,-1.7489639506172978,1.3982507407407423,0.24215020987652924,1.1093474691358154
2.2666666666666666,0.00020141469230769614,-2.706673846153843e-05,-3.392706923076922e-05,-9.042340769230785e-06,-7.230450256410477e-07,-7.992207948717992e-06,6.068373846154288e-07,-4.678260769230784e-06,-1.7777079012345705,0.5857567160493882,-1.4043110370370477,-2.028614444444444,1.202101851851852,1.05141,-1.9000048148148163,0.5835680123456808,-1.3947692592592602,1.479214074074074,0.3525580370370402,1.5761924691358042,1.264961851851916,1.5852951851851886,0.6755728395062233,-1.5259085185185128,0.827309839506172,1.7617411111111148,1.5101006172839524,1.03529,1.586383950617284,-1.6745106172839475,0.6023179629629608,-0.7853851234567839
2.3,-0.0001034529615384649,-3.3844188461538384e-05,-2.952208269230657e-05,-1.005481423076899e-05,-6.452511346153287e-06,-5.112945576923397e-06,-9.263988846154325e-06,-1.02388e-05,-1.0440992592591054,0.3947816296296487,1.0537929629629648,1.9847985185185175,1.1739040740740772,1.379347407407401,-0.7280927037037036,0.9838214814814857,1.2872892592592555,1.0229092592592672,1.3885992592592489,-1.8990070370370353,1.7395144444444361,1.3380159259259097,1.3621922222222203,-1.2951966666666717,0.9957583703703691,-1.6568614814814824,-1.1186955555555596,0.46878414814815045,1.501987407407414,-1.5594296296296077,1.7248922222222114,0.9999355555553788
2.3333333333333335,-8.951956666666992e-05,-1.6561150000001338e-05,-2.117698333333553e-05,-7.385370000000573e-06,3.804581666668005e-06,1.6952783333329892e-05,-5.371178333332761e-06,-8.476384999999713e-06,-1.1282970123456857,0.6018698641975329,1.2754046913580244,-1.1224754320987604,0.0,-1.578729876543206,0.917623950617275,0.33291319753086407,1.020029382716049,-1.4074986419752995,1.486222345679009,-0.6779082716049951,-1.9002030864197517,1.1982712345679003,1.3291140740740754,-2.025881604938273,0.9890424074074051,-0.7050638271605496,0.4782837037037577,1.07174602469136,1.6396992592592594,-1.9098025925925897,0.9180719135802433,-1.9179541975308647
2.3666666666666667,2.53452e-05,-2.043456153846128e-05,-3.310933846153872e-05,-1.121362115384596e-05,-6.188900769230641e-06,-2.4693220512817616e-06,-1.2179784615387188e-06,3.656098269229547e-06,-0.4276546913580521,0.7014854197530873,1.4322155555555556,-0.867196222222224,0.783246802469139,-1.4044141975308657,1.9370061728395074,0.7965252962962969,1.2209482716049385,-0.6566758395061743,0.602118913580247,-0.3276911975308624,1.6720755555555544,0.8321840370370354,1.5355103703703705,-1.5260596296296294,1.0579744444444437,2.00330024691358,1.4507158024691376,1.0561809876543202,1.8213764197530873,-1.8136181481481477,1.144657037037037,-1.97794
2.4,-2.3615053846154068e-05,-4.388606923076919e-05,-3.9418776923076743e-05,-1.0058046153846066e-05,-5.229145384615562e-06,3.912176153845933e-06,2.4790053846154067e-06,-8.599044615384594e-06,1.8548433333333367,0.9484602222222224,1.5446611111111113,-1.9671944444444396,1.582707777777778,1.8306766666666678,-0.20992777777766003,1.540628888888886,1.2819244444444429,-1.992704444444442,1.6364177777777742,-1.2702833333333263,-0.2958633333332177,0.9529355555555512,1.877672222222222,-1.4909488888888898,1.1167599999999995,1.6417888888888823,-1.971669999999998,0.849989,1.781887777777777,-1.6408955555555518,0.9730777777777776,-2.0235888888888893
2.433333333333333,8.238845228762946e-07,-4.5658241176469436e-05,-5.551091830066028e-06,-8.700733529411574e-06,-2.346598823530558e-06,-1.9867635294115737e-06,-7.712289346403415e-06,-1.1815251503245049e-06,-2.0362256790123445,1.061554567901235,1.4561356790123448,-1.9280524691358056,0.899124728395067,1.9198482716049405,1.6689933333333415,1.5352625925925956,1.357515308641975,-1.2872929629629777,0.10463580246929438,-1.7192248148148088,-2.04229049382716,1.1602744444444453,1.705995185185185,-1.3813869135802446,1.2933586419753103,1.7521958024691346,1.4866739506172852,1.1719616049382697,1.8935388888888902,1.8506172839506145,1.015055555555555,2.04030037037037
2.466666666666667,-1.6157644871795135e-05,-1.4668514102564065e-05,-4.91216980769233e-05,-5.276489294871946e-06,-7.0572017307694186e-06,-6.88182e-06,5.767125576924585e-07,1.7507996153846606e-05,2.0221448148148147,1.133816543209877,1.4462851851851855,-1.5554020987654316,0.5681013209876548,1.8714072839506193,1.5079092592592598,1.5095511111111113,1.337073086419754,-1.0729422469135856,-1.305249506172842,1.813612839506174,1.9939491358024688,1.0785111111111114,1.884732716049383,-1.5862914814814824,1.184992469135803,1.9306888888888887,1.7278287654320996,1.109446172839506,1.9463524691358027,-1.9548588888888887,1.03410024691358,2.012553827160494
2.5,-1.589405384615325e-05,-8.656500000000044e-05,-4.772079615384546e-05,-7.152962307692208e-06,-1.4460823076922086e-06,-1.3815257692305709e-06,-4.564208846153896e-06,-9.296267692307793e-06,1.89737,1.3377211111111111,1.4879625925925926,-1.785471851851852,0.977254666666667,-1.8030744444444444,1.5801685185185186,1.6016544444444445,1.4745366666666666,-1.9821129629629628,-1.9836070370370373,-1.7605529629629628,2.0104611111111113,1.0454396296296296,1.885432962962963,-1.8881185185185185,1.2067262962962964,1.7871074074074074,1.7005707407407407,1.1173525925925927,1.9431725925925927,-1.9762944444444446,1.100347037037037,1.9682344444444444
2.533333333333333,-9.57601762820518e-06,-2.9726515384615488e-05,-3.4400492307692255e-05,-9.233861923076936e-06,-4.3726876282051794e-06,-4.863326153846128e-06,-3.2063552564103593e-06,5.676743269230589e-06,1.9884776543209877,1.484636049382716,1.4626016049382717,-1.963610370370371,1.6076720987654318,-1.8492749382716056,1.4585716049382718,1.505322592592593,1.4716038271604936,-1.7446351851851847,1.8232174074074081,-1.8317197530864193,1.8440041975308648,1.0758785185185187,1.7002785185185187,-1.8563858024691366,1.08363,1.837885308641975,1.6885406172839503,1.1152162962962966,1.9643076543209876,-0.7782691358025053,1.0297245679012346,-2.061286172839506
2.5666666666666664,-1.3328961538461435e-05,-2.822877692307713e-05,-5.126286153846143e-05,-8.228913846153589e-06,-6.231941282052003e-06,9.726684102564619e-07,-5.642317641027493e-06,-4.978235897436309e-05,1.9799723456790126,1.5730601234567898,1.4280898765432102,-1.6657598765432102,1.2683453086419803,-1.5287998765432103,1.5537609876543188,1.329514197530866,1.3897402469135798,-1.967541728395058,1.7268343209876504,-2.047415061728395,1.9182564197530834,1.090550740740739,1.7422501234567898,-1.7170850617283948,1.151022962962962,1.9687829629629618,1.7181298765432103,1.0916402469135797,1.9899702469135796,2.021202716049382,1.0100827160493824,-2.04438012345679
2.6,-1.466745769230756e-05,-2.133301923077006e-05,-2.0881105769230802e-05,-7.320812307692439e-06,-3.66040115384622e-06,-2.0464688461537798e-06,-2.972869615385575e-06,-4.635219730771083e-06,-2.029854074074074,1.6080662962962964,1.4205274074074072,-1.3521914814814775,1.0794570370370384,-1.3081833333332455,1.8314200000000023,1.0763240740740718,1.5552529629629648,1.2538748148148144,1.7687618518518418,-1.5895725925925939,-1.9783859259259264,1.0955725925925917,1.7565255555555566,-1.6898285185185191,1.1715137037037038,1.8423151851851844,1.69998,1.0949737037037037,1.9925574074074073,1.9755481481481494,1.0063537037037036,2.0186659259259265
2.6333333333333333,-1.5472276923077128e-05,-3.2091508974359046e-05,-2.523978589743618e-05,-7.081948846153923e-06,-5.53902e-06,-4.734210769230718e-06,-7.482202564102796e-06,-2.7492819230769282e-05,-2.032787654320988,1.4338076543209857,1.563859629629631,-1.521436543209879,1.2140325925925928,1.8002856790123447,-1.8529567901234578,0.6771656913580257,1.9996658024691352,-1.5445577777777761,0.0,-1.974801851851853,1.9502885185185181,1.023758395061728,1.821825061728395,-1.670784938271605,1.0770713580246916,1.8077461728395061,1.74832,1.06752,2.0056337037037038,-1.9290514814814819,1.0066024691358024,2.0408974074074075
2.6666666666666665,-1.839669038461527e-05,-3.252401538461673e-05,-4.743243846153891e-05,-9.734191987179767e-06,-5.303392435897604e-06,-3.929393525640577e-06,-5.136620384615272e-06,-1.0176398205126971e-05,1.8557951851851855,0.6620473456790111,-1.8973170370370351,1.2213954320987626,0.9938660493827174,0.7549489876543197,-1.8836418518518507,1.0954712345679012,-2.059297283950617,-1.3664161728394797,0.410895,1.780142592592563,1.8404724691358023,0.9738733703703703,1.8580750617283952,-1.6267237037037037,1.1193924691358024,1.7387680246913577,1.4953272839506169,1.1322281481481482,1.8008317283950315,1.9601308641975304,0.950698,1.9127343209876544
2.7,0.00115766,-2.09812e-05,-1.94705e-05,-6.88182e-06,-4.86763e-06,-8.56031e-06,1.51064e-06,1.51064e-06,1.66372,0.664683,-0.580087,1.79263,1.18434,0.39881,-1.99002,1.20851,-1.79263,-1.86514,0.322271,-2.0585,-1.96988,0.837903,-1.96988,-1.57107,1.20449,1.5751,1.39785,1.14406,-1.96988,1.94571,0.793591,1.80874
2.7333333333333334,-0.0002528990448717903,-2.7845764743594227e-06,-4.022251025640874e-05,-1.0774628846154183e-05,-3.695909871794031e-06,-8.39246e-07,-6.610675705128878e-06,-1.4865434615386185e-05,1.851609629629629,0.8906203580246905,-1.0420117901234551,-1.5630596296296269,1.4446980246913579,1.4351460493827157,-2.0436332098765435,1.8112780246913578,-1.7148467901234565,1.7601071604937994,0.5405993456790119,-1.9681902469135797,-1.7881024691358023,0.7860313456790123,-1.9499887654320989,-1.6179180246913578,1.2880855555555555,1.4069044444444445,1.5211864197530867,1.0806044444444445,-1.862850740740741,1.778153703703674,0.7797159629629632,1.770200740740741
2.7666666666666666,2.689458461538499e-05,-4.401305256410278e-05,-4.7434610256410286e-05,-1.1179170512820544e-05,-4.968770384615416e-06,-5.1990221794868675e-06,-1.7409017948714513e-06,-2.7157129487176987e-06,1.592101851851853,1.0100317283950624,-1.945157530864193,1.8797164197530867,1.297586543209877,1.0913974074074053,-1.5930969135802482,1.1813600000000044,-2.0283620987654314,-1.9985775308641978,0.5891385679012346,-1.9226792592592579,-1.9693824691358024,0.753307,-1.861556543209877,-1.786611111111111,1.20046,1.3751713580246916,1.401331481481482,1.09169,-1.7759714814814818,1.8444514814814819,0.709940333333334,1.6515890123456796
2.8,3.436715769230554e-05,-9.220730192307646e-05,-2.4867473076922682e-05,-7.88891e-06,-2.78242653846134e-06,-3.2536917307690984e-06,-7.07872096153823e-06,-4.32534538461512e-06,2.0104603703703696,0.8598358888888922,1.5846451851851893,-1.0567803703703764,0.44148099999999446,1.4755829629629678,1.2589400000000137,0.0,-0.947116814814823,-1.0164977777777802,1.2120981481481585,0.8534200000000014,1.9539155555555572,0.4358109629629668,-1.593003703703707,-1.659391481481482,1.25686,1.1167618518518534,1.0120218518518533,0.7400288148148175,-1.7319096296296304,1.8943848148148144,0.38955981481481755,1.3759170370370375
2.8333333333333335,5.1968692307694165e-05,1.0385138717947998e-05,-3.8230915384615694e-05,-3.390125641025667e-05,-7.058275641025126e-07,-4.394206923077129e-06,-1.67849e-07,-5.435729743589898e-06,-1.7300635802469062,0.6468783580247001,-1.91864925925926,-1.6390075308642005,0.9494050370370352,1.5122318518518558,-0.6326544320987667,1.3362807407407398,1.7698554320987678,-1.0855237037037755,0.4732107654321046,-1.058915555555631,-0.750872839506243,0.6297705432098855,-1.139730123456808,-1.7120102469135798,1.3828792592592603,0.9417461481481489,1.480750740740743,0.5834688148148173,-1.74229987654321,-1.839974938271605,0.2643317160493858,1.2776444444444421
2.8666666666666667,1.1024251282052063e-05,-3.3743079487179526e-05,-3.591862435897435e-05,8.360181282051061e-07,-4.863326153846125e-06,-3.1912918589743735e-06,4.970922564102123e-07,-1.3591496153846124e-05,-1.7679640740740759,1.1007893827160484,1.1090507407407406,1.2700330864197544,0.8496903703703732,-1.6994334567901228,1.5834513580246856,0.9267270864197512,1.2430767901234552,-1.8368428395061738,1.0481739506172854,-0.9465704567901244,0.5359251851852156,0.49056738271604616,1.5129767901234552,-1.4719023456790123,1.4434543209876538,1.1223240740740743,0.7792680617283957,1.060412222222222,1.594341358024691,1.9924540740740746,0.9656180617283947,1.7441392592592606
2.9,7.684915769230637e-05,-4.272411153846101e-05,-3.2511103846152923e-05,-4.318891538462664e-06,-9.29626769230756e-06,-6.016748846154244e-06,-1.2892111538461604e-05,-3.3957165384618032e-06,1.7207159259259261,1.7028133333333333,1.2001603703703705,-1.2735655555555552,0.8996717777777778,-1.708036666666667,1.5409311111111097,0.8341733703703698,1.5471959259259258,0.4037285185185093,1.6774488888888897,-0.5459199999999909,0.958308148148147,0.4614736296296298,1.1883733333333328,-1.2232855555555557,0.07609148148148198,1.80621074074074,-1.6079192592592606,0.4841518518518523,1.2905729629629634,-1.722206666666666,0.9374192962962962,-1.3660677777777779
2.933333333333333,-8.75721096153835e-06,-2.7563832692307766e-05,-3.4364955128204865e-05,1.3628086666669154e-05,1.9704014102564067e-05,6.789313397437782e-07,-7.144354615384464e-06,-7.757646602564178e-06,-1.7132079012345747,1.0866206172839532,1.5629148148148144,0.2925830864196979,1.0350439506172853,1.9777891358024708,-1.120834197530861,1.0775174074074083,1.7733785185185176,1.4930903703703668,0.9129999382716015,-1.7145946913580234,-1.4336083950617264,0.6268365061728378,1.5155685185185175,-1.9163659259259236,0.20664082098764994,-1.4003351851851813,-1.603843456790119,0.6045057530864185,1.2379554320987636,-1.870012839506174,1.4572267901234548,-1.2223908641975334
2.966666666666667,-3.053980261437888e-05,-3.6032747058823484e-05,-3.782095294117652e-05,-2.2611387581699053e-05,6.148988888889099e-06,-6.491267058823488e-06,3.799098888889099e-06,-1.29244e-05,0.04128074074076804,0.6310134320987661,1.6958504938271604,1.9940997530864197,0.9226984320987657,1.7965555555555555,2.018717283950618,0.856503469135803,1.8771255555555555,-1.7797492592592583,0.9198136049382708,-2.0001198765432098,0.03605580246910711,0.7979676296296301,1.5570445679012346,-2.021747654320987,1.1065608641975317,-1.9922090123456793,-1.7285230864197536,1.3140507407407416,1.251282469135803,-1.6963479012345684,1.54083012345679,-1.054242098765433
3.0,-1.3234276923076747e-05,-2.9489815384615318e-05,-3.247240769230793e-05,-1.1271727692308442e-05,-3.6022992307691866e-06,-2.9309092307691864e-06,-1.0651973846154374e-05,-6.455741538461781e-06,-1.9354133333333334,1.28416,1.7183277777777777,1.9336255555555555,1.1261577777777778,1.861561111111111,-1.6082188888888889,1.07468,1.9828611111111112,-0.17098222222222237,1.0044116666666667,-1.9676411111111112,-1.9662988888888888,0.8920626666666667,1.4927388888888888,-1.7841222222222222,1.1977711111111111,1.6435777777777778,-1.8118766666666666,1.5213855555555555,1.5061677777777778,1.6471588888888888,-1.9537655555555555,-1.5415255555555556
3.033333333333333,-1.2458460256410514e-05,-3.3239578205128245e-05,-4.309426153846124e-05,-2.6894584615383735e-05,-6.237319038461723e-06,-5.549779615384689e-06,-5.885479615384689e-06,-4.206989615384689e-06,-1.7993925925925924,1.0024729629629632,1.777113209876543,-1.6773523456790123,1.074982962962963,0.4520732098765732,-1.7464255555555555,1.1012923456790122,1.9949953086419754,1.8877676543209878,1.1332674074074076,-2.032787654320988,-1.9204469135802475,1.0343508641975308,1.5730616049382722,-1.7685571604938275,0.6901461728395063,1.4581728395061724,-1.5419246913580247,1.4061549382716048,1.58195975308642,1.6114006172839497,-1.4370875308641973,1.9776850617283952
3.0666666666666664,-9.90311e-06,-3.183539999999962e-05,-3.709464999999943e-05,-8.168658333329512e-06,-2.6296399999996176e-06,-9.595385000000478e-06,-1.4602900000001146e-05,-6.1264966666675264e-06,-1.9974765432098758,1.2276581481481486,1.6891835802469135,-1.853351728395062,1.1712681481481486,1.791485679012346,-1.884437407407408,1.048822839506173,1.9769381481481485,2.0396535802469136,1.0771653086419757,-1.9596838271604944,-1.8370924691358026,1.2588437037037028,1.4913493827160489,-1.6163718518518515,0.90434674074074,-1.9958403703703727,-1.4679253086419757,1.547201728395062,1.651036543209876,-1.7782087654320977,2.021105679012346,-1.5237744444444457
3.1,-1.6158740384615406e-05,-3.444137884615378e-05,-3.2388444230769475e-05,-9.418923653846e-06,7.74691346153405e-08,-6.268525576923187e-06,1.4364049999999228e-06,-7.38537e-06,-1.9060222222222225,1.096165185185185,1.723550740740741,-1.7365288888888892,1.0543951851851852,1.0005277777777974,-1.8946807407407407,1.0252996296296295,1.9477996296296296,1.8876729629629627,1.0344018518518516,-1.9679396296296296,-0.8926629629629823,1.40591,1.4773751851851853,-1.6789418518518517,1.2297018518518514,-1.809339259259259,-1.4652851851851851,1.4238137037037037,1.65164,0.9721811111111311,2.010612962962963,-1.7336974074074072
3.1333333333333333,-2.26596e-05,-3.13878e-05,-4.119196153846138e-05,-1.5450738461534782e-06,-3.5850894871795607e-06,-1.0824123076923134e-05,-1.4615789743589677e-05,-6.1716897435896555e-06,-1.79666,1.161762098765432,1.557346172839506,-1.888464197530864,1.125512098765432,2.02225,-1.7000297530864201,1.113422098765432,1.9827143209876539,-1.950585802469136,1.10537012345679,-2.007722098765432,-2.0041954320987685,1.5436143209876538,1.437284197530864,-2.0104066666666682,1.4802587654321002,-1.7230532098765465,-1.408296172839506,1.3165356790123461,1.640397777777778,-1.964257901234568,1.6479083950617304,-1.8204798765432075
3.1666666666666665,-1.5769242307692687e-05,-2.5729356410256126e-05,-2.367317948717551e-05,1.0135515320517363e-05,-5.459401217948529e-06,-7.473598846153656e-06,-4.372687692307314e-06,-8.39246e-06,-1.9982265432098747,1.052703580246914,1.7318079012345664,-1.9087023456790115,1.0402680246913594,1.9365554320987657,-1.7951646913580233,1.075233086419754,2.003203209876543,-1.4665787654322102,0.9780014814814826,-1.9605264197530858,-1.3931207407408506,1.60494049382716,1.4730950617283944,-1.3191674074074105,1.035891518518521,-1.5137243209876439,-1.6752088888888867,1.011028098765436,1.64790308641975,-1.9297441975308716,0.9895913580247039,1.6221925925925855
3.2,-1.304055384615464e-05,-2.716577692307732e-05,-3.7785419230771515e-05,2.2027030769219852e-05,-9.767538461537965e-06,2.50482846153866e-06,1.199476923076804e-05,-4.84826269230799e-06,-1.8881166666666662,1.015599259259258,1.8993081481481504,-1.743843703703594,1.018730740740742,1.7311574074074054,-1.79263296296296,1.0685633333333353,-1.887519629629629,1.84903,1.0138059259259269,1.9130337037037022,-1.7005762962961888,1.4803548148148111,1.7393677777777834,1.6653651851851727,0.8620737407407437,1.5649540740740704,1.5730081481481504,0.9229471851851839,1.770847407407408,-1.2429825925924987,0.0869832037037104,-1.1840451851851996
3.2333333333333334,-1.3964812820512618e-05,-2.9601703846153686e-05,-3.271768846153894e-05,-2.374847307692421e-05,-1.35958e-05,-2.18204e-06,-3.369893141025156e-06,-8.204168333333051e-06,-1.998527530864198,0.825370407407407,-1.96992975308642,2.010408641975309,1.1033820987654317,1.5103416049382712,-1.3780581481481486,1.22866,-1.7082290123456791,1.8770807407407406,0.9099664074074069,1.7485188888888892,1.9193992592592044,0.584861000000001,-1.9594825925925896,-1.454001234567901,-2.0243403703703677,0.003381851851855857,-1.9206939506172258,0.968950493827163,1.946207283950618,1.2385501234567924,0.24374167901234334,-1.6972943209876512
3.2666666666666666,-1.6832292307692344e-05,-3.3845264102564124e-05,-3.3789346153845935e-05,-1.016133435897469e-05,-1.086716512820555e-05,-1.1319073076920135e-06,-6.373969743590001e-06,-1.0669184615384689e-05,-1.916265185185185,0.7220746666666666,-1.969481975308642,1.9547645679012344,0.9585560370370371,1.414358024691358,-1.480450864197531,1.070504197530864,-1.6814311111111109,1.8564834567901236,0.7424156296296296,1.736628024691358,-1.460708888888889,0.8641620493827165,-0.8241268765432093,-1.8592213580247083,0.570290172839504,1.9307900000000013,1.272372962962963,1.2467079012345674,1.9869845679012343,1.8484822222222386,0.5406984197530871,-1.497763950617284
3.3,-1.35958e-05,-2.8514982692307846e-05,-3.194945192307646e-05,-3.25692115384762e-06,-2.18204e-06,-4.906364615384307e-06,1.767905192307314e-05,-7.366002692307846e-06,1.5903144444444153,0.7524118888888888,-1.8830411111111114,-1.9712222222222224,1.1163088888888888,1.4318700000000002,-1.6668544444444444,1.0657299999999998,-1.6462655555555559,1.9000555555555558,0.777029777777778,1.6767044444444446,-2.032095555555555,1.27297,-1.1207835555555543,-1.4815488888888864,1.4170944444444444,0.9005666666666665,-1.4784133333333342,1.2031411111111106,2.0079255555555546,-1.5683799999999715,0.4413312222222218,-1.3723333333333323
3.3333333333333335,-1.5020373076922993e-05,-3.1887046153845985e-05,-3.3655926923077006e-05,-1.6849469487165545e-06,-4.286610769231023e-06,-2.935213076922992e-06,-9.141329230768978e-06,-5.506743589743971e-06,-1.3016675308643881,0.5555188641975288,-1.8297340740740726,-1.90999901234568,1.153511358024691,1.3268806172839491,-1.5416261728395053,0.9387625308641964,-1.5414769135802473,1.8201334567901235,0.5735720987654306,1.544959629629629,-1.5210904938271423,1.718823333333338,0.622959753086564,1.62234197530864,0.9633801234567856,1.3386144444444508,1.8420127160493747,0.7014353950617195,-1.2491928395063594,-1.9088598765432143,0.8605315432098934,1.3302154320989483
3.3666666666666667,-1.29244e-05,-3.2372307051281917e-05,-3.257032948717953e-05,-9.216646538461448e-06,1.4497455769230138e-05,-7.322963782051911e-06,-7.698474807692171e-06,-1.02388e-05,-1.9059198765432095,0.35355292592592585,-1.5683839506172854,-2.035526419753086,0.9658669259259259,1.0414125925925934,-1.4912509876543203,0.47793534567901275,-1.3869564197530864,1.8038214814814804,0.2727367530864199,1.45022,2.0331903703703693,0.0,-0.750823209876498,-1.459614938271597,0.8306921604938244,1.3498523456790101,1.6782449382716036,0.8255199629629546,0.8568537037036514,1.2595923456790146,0.09419456296296533,1.2708311111111064
3.4,0.0003794811538461577,-2.8314853846153826e-05,-3.402175384615382e-05,-7.966379230769264e-06,1.4254246153846077e-05,-6.88182e-06,-3.48609538461544e-06,-3.576476153846176e-06,-1.7535425925925854,0.7030268518518419,-1.6188159259259103,-1.973011481481482,1.1373462962962955,1.0608062962962954,-2.0203044444444416,0.4455092962962941,-1.5130281481481482,1.5164622222222235,0.38135329629629233,1.6902799999999978,-1.870068518518518,0.7176496296295494,1.1539118518518627,-1.4294803703703762,0.7424157407407432,1.9910655555555519,-0.8071648148147292,1.0064984444444456,1.6898322222222202,-1.1785244444444527,0.6824379259259329,-0.2525946666666761
3.433333333333333,-0.0001469712628205183,-3.586053974358982e-05,-4.0925123076922465e-05,-8.777654230769383e-06,-1.09102e-05,-4.19623e-06,-5.459405320512058e-06,-3.4839464102547327e-06,1.8461408641975212,0.37225191358025367,1.102038641975308,1.9371517283950643,1.1032781481481506,1.4814990123456764,-0.6390705185185184,1.0716025925925943,1.2280139506172816,1.1197392592592639,1.3593569135802395,-1.8176919753086431,1.9861407407407363,1.5360034567901155,1.201453580246918,-0.9997850864197588,0.8946486049382736,-1.5983716049382706,-1.1965807407407363,0.47878054320987584,1.532826296296297,1.8002897530864257,1.9362071604938271,-1.922533580246918
3.466666666666667,-8.330707051282375e-05,-2.6079028205129203e-05,-3.1086530769231e-05,-7.669419358974006e-06,-3.0385053846155023e-06,-2.24918e-05,-7.854484743589508e-06,-7.766254871795754e-06,-1.1480374814814822,0.7053149012345681,1.2172167901234567,-1.1945929629629624,0.0,-1.6188607407407403,0.9915783086419745,0.3581283333333334,1.0194329629629628,-1.2677451851851842,1.7023138271604934,-0.22573987654321614,1.875587160493827,1.0246486419753087,1.686402592592593,-2.0071806172839506,0.9619876666666668,-2.0357744444444443,1.3446835802469133,1.1519691358024693,1.574847037037037,-1.8636480246913576,0.4407350123456787,-1.922433950617284
3.5,2.397279215686283e-05,-1.7505680392156915e-05,-3.81018e-05,-1.1160329411764694e-05,-6.506625882352958e-06,-4.367371176470611e-06,-1.09102e-05,-2.259383921568611e-05,-1.9163129629629658,0.705414296296295,1.502435925925926,-0.7555453703703671,0.8186567777777741,-1.3908385185185168,1.924225555555554,0.8968368888888876,1.333095925925925,-0.6358875925925908,0.47445399999999943,-0.3118266296296319,1.8766281481481486,0.5778490000000012,1.625976296296295,-1.3756203703703704,1.1530118518518535,1.8643940740740745,1.635074814814812,0.9824774074074076,1.9260133333333342,-1.419627777777779,1.050365555555556,-2.0049414814814823
3.533333333333333,-2.088651538461482e-05,-3.7945739102564175e-05,-3.234755769230741e-05,-1.0394860897435826e-05,-2.3003950641032714e-06,-5.53902e-06,-6.990492115384261e-06,-8.706641474357842e-06,1.8941840740740765,0.9373695925925939,1.5984685185185192,1.9764945679012378,1.5475965432098768,1.845944444444446,0.2268844444445286,1.5661959259259235,1.2632698765432082,-1.828041358024689,1.540533333333331,-1.2488477777777738,1.8222176543209883,1.156693580246912,1.8972696296296305,-1.4155051851851879,1.2872391358024693,1.5792781481481433,-0.224347037037121,0.9360763086419751,1.8262004938271583,-0.16192864197539092,1.0186355061728412,1.9941503703703694
3.5666666666666664,3.141788974360371e-07,-4.3223364102563545e-05,-5.627253846153818e-05,-8.16005358974401e-06,-1.476644615384727e-05,-2.375711794870538e-06,-2.85344e-06,1.9315605128207224e-05,-0.4018449382717364,1.07155,1.480851851851852,0.4614191358026001,0.9875479753086459,1.8202806172839523,1.6540218518518568,1.4931348148148162,1.4070461728395083,-1.386559753086425,-1.913330493827165,-1.8435574074074033,0.4357604938272923,1.0959169135802482,1.8158507407407398,-1.4899032098765395,1.2548119753086444,1.7715407407407397,1.359904444444444,1.2214458024691361,1.884537654320988,-2.02403901234568,1.012815555555556,0.4182553086421086
3.6,-1.728204423076948e-05,-2.4873928846154756e-05,-3.933159038461543e-05,-4.19623e-06,-8.676513846153681e-06,-2.1755842307694788e-06,-1.1575144230769479e-05,-8.921829615383623e-06,1.8517166666666665,1.134660000000001,1.4811033333333339,-1.5952400000000002,0.6029146666666668,1.8638000000000028,1.3991900000000004,1.4743866666666672,1.3683066666666681,-1.1360066666666753,-1.2447700000000046,1.6395500000000032,2.0262799999999985,1.0500666666666667,1.8597666666666668,-1.7939700000000023,1.1964266666666674,1.8288833333333328,1.787260000000001,1.12795,2.014193333333333,1.9980800000000014,1.0728900000000003,1.9819633333333342
3.6333333333333333,-1.751872948717934e-05,-2.324497564102505e-05,-7.428403205128499e-06,-9.038036923076747e-06,-6.455716538459774e-07,3.012682307692249e-06,1.2653265512815218e-06,-1.2571484615384498e-05,1.9127337037037038,1.3882974074074073,1.508799135802469,-1.9024918518518519,0.9359770246913576,-1.8658862962962963,1.5542109876543209,1.6721255555555554,1.46891987654321,0.9552275308642268,-0.9113082716049679,-1.6912261728395064,0.9413491358024988,1.0807018518518519,1.8490751851851854,-1.91203987654321,1.1004962962962963,1.82227012345679,1.723400987654321,1.0744854320987653,1.9636156790123453,-1.77652,1.0275855555555553,2.0174737037037036
3.6666666666666665,-1.5760634615384496e-05,-2.678053269230775e-05,-4.06830179487181e-05,-9.474877307692248e-06,-4.4103463461538755e-06,-2.274572692307751e-06,-6.610680448717243e-06,-1.8446234615384496e-05,1.98599,1.4641885185185182,1.4652872839506175,-1.817691851851853,1.5354107407407398,-1.7570188888888891,1.46633,1.530187160493828,1.4792637037037037,-1.72818,1.8312744444444455,-1.7190212345679003,2.01866987654321,1.0785572839506177,1.8095858024691358,-1.6908772839506176,1.1451027160493825,1.8271983950617283,1.7332987654320995,1.1254125925925929,2.0031527160493825,1.9601844444444456,1.0183341975308642,2.0286104938271605
3.6999999999999997,-1.881206153846048e-05,-3.412504615384651e-05,-4.486734615384651e-05,-6.120039999999383e-06,-1.1981853846154287e-05,-3.0600246153837334e-06,-3.1245823076918667e-06,-1.0974755384633025e-06,1.9768937037037033,1.6016566666666663,1.3644259259259262,-1.400538148148149,1.474238148148151,-1.6562629629629653,1.5586885185185173,1.391881111111112,1.3823270370370369,-1.8035199999999978,1.6595462962962946,-2.012400370370371,1.965704814814813,1.0757277777777772,1.69192,-1.7660733333333336,1.1704688888888892,1.883638148148148,1.63552,1.14003,1.9674933333333338,1.9679366666666651,1.0248518518518521,-2.046712962962964
3.7333333333333334,-1.29244e-05,-1.4480240384615407e-05,-4.793394487179983e-06,1.789315134615425e-06,-2.743685576923187e-07,-4.19623e-06,-4.835352371794938e-06,-1.1238326794871886e-05,1.7054943209875049,1.67581,1.3871530864197539,-1.3172288888888803,1.070653580246915,-1.7428965432098877,1.744933333333337,1.1574379012345635,1.4617077777777827,1.3348354320987628,1.8927922222222118,-1.636417283950616,2.0532785185185163,1.0720981481481466,1.6962982716049384,-1.668446543209877,1.09169,1.9218882716049384,1.8625030864197538,1.0168904938271612,1.9334724691358007,1.6881396296294815,1.017787777777777,-1.97794
3.7666666666666666,-1.3019084615384115e-05,-2.6593315384615885e-05,-1.78781269230778e-05,-7.848026666667105e-06,-7.097012307692057e-06,-2.638247692307942e-06,1.0725141410254286e-05,-1.304061025641363e-05,-1.9860895061728392,1.4062497530864249,1.5379929629629585,-1.3820350617283832,1.306791358024689,1.6140869135802487,-1.6091106172839482,0.5670564567901191,-1.864044691358163,-1.9085098765432282,0.0,-2.004936419753088,1.878821358024689,1.0347927160493835,1.802281358024689,-1.6840590123456787,1.0603553086419741,1.880255432098767,1.7958641975308653,1.012015308641974,1.977641481481482,-1.906613827160492,0.998442185185186,-1.9375012345680438
3.8,-1.3582888461538672e-05,-3.127805192307598e-05,-4.469308846153773e-05,-1.1258811538461328e-05,-3.237553461539038e-06,-6.694602692308007e-06,-5.164590576923706e-06,-1.7556390384615123e-05,-1.9933040740740733,0.6312627777777812,-1.908105925925929,0.4232780000000338,0.8661016296296248,0.399854148148159,-1.8754362962963038,1.035588518518519,2.0470103703703613,-1.4166503703703592,0.6317099999999991,1.8828929629627837,1.9115388888888916,1.047678518518519,1.94571,-1.7046066666666675,1.1926985185185188,1.6525351851851862,1.391729629629632,1.2038929629629622,-1.9107944444442646,1.8763329629629666,0.9429394074074077,1.894533703703705
3.8333333333333335,0.0011835458974358978,-6.717842051282046e-05,2.1196364102563958e-05,-4.342560769230784e-06,-2.948124615384608e-06,-2.345586153846128e-06,-5.53902e-06,-1.7542405128205355e-05,1.489406543209873,0.7728022839506239,-0.5650678518518553,-1.6271220987654809,1.071351234567894,0.3089420864197527,1.8749841975308617,1.3061909876543232,-1.7714472839506146,-1.2998756790123973,0.34320775308641965,-1.984697283950621,-1.9359137037037022,0.7311263333333331,-1.8767295061728384,-1.5230762962962956,1.2403937037037043,1.5065682716049378,1.4171939506172841,1.1154112345679008,-1.9206932098765428,1.9647076543209885,0.7758362592592589,1.8026791358024687
3.8666666666666667,-0.00018972574999999924,-2.681393333333233e-05,-5.462098333333367e-05,-1.085425000000019e-05,-6.88182e-06,-4.86763e-06,-6.154470000000191e-06,-5.497058333333477e-06,1.9121864197530865,1.2084133333333327,-1.1698695061728386,-1.9306369135802453,1.4050064197530867,1.4140566666666672,-1.9257641975308646,1.7806908641975308,-1.8183937037037035,1.733997901234568,0.5413946666666666,-2.0172281481481478,-1.9862917283950616,0.780560802469136,-1.9202464197530864,-1.6566085185185184,1.225276790123457,1.3525914814814817,1.5259623456790123,1.05946,-1.8448491358024692,1.9858391358024692,0.7612151358024692,1.7227055555555557
3.9,-4.635223461538594e-06,-3.4809357692307846e-05,-4.0361307692307365e-05,-8.973479230769187e-06,-8.56031e-06,-2.85344e-06,-4.19623e-06,-4.906364615384594e-06,1.5540577777777755,0.9135481111111137,1.1319755555554971,1.6901311111111106,1.0617066666666704,1.3705411111111054,-1.4797611111111115,0.7855354444444513,-1.9501811111111125,2.007477777777777,0.7434597777777749,0.9175722222221672,-1.8691722222222216,0.6490168888888898,-1.6834177777777786,-1.7608499999999998,1.331153333333333,1.2268644444444454,1.2541688888888898,1.035295555555556,-1.6852055555555554,1.8740955555555556,0.5778490000000012,1.4587233333333343
3.933333333333333,0.00029512023076924736,-3.755521153846182e-05,-2.70237e-05,-1.101564423076909e-05,-3.5054695512816324e-06,-5.222690448718368e-06,-9.883739551281632e-06,-8.320370576922728e-06,1.9534685185185146,0.490268888888898,1.3181228395061688,-0.8310897901234555,0.852922320987645,1.3297140740740774,-1.0188804938270712,0.46152318518516844,-1.82535567901233,0.6699545679011569,0.1258247654321103,1.3139945679012235,1.9057214814814856,0.08380018271605262,-0.6603049629629766,-1.6930643209876546,1.3408529629629633,0.8637151728395074,0.9370715802469108,0.4066180493827197,-1.6141830864197537,-0.863967777777674,0.0654984296296312,1.2861943209876545
3.966666666666667,0.00011603571794871773,-2.9872846153846125e-05,-3.305769230769225e-05,-1.192590769230775e-05,3.214957948718125e-06,-5.448644358974315e-06,-1.9238092307691867e-06,-2.1088746153846887e-06,-1.5956859259259155,1.139784148148161,0.3425635802470153,0.4773409876544219,0.4872851851851763,1.7717941975308689,-0.9512954074074154,1.1864824691358007,1.8805106172839523,-1.3357303703703618,0.5680512716049413,-1.4347974074073935,-1.4244524691358091,1.048424444444442,1.6477056790123426,-1.5501304938271592,1.4054556790123467,0.9796922716049395,1.0410641728394991,0.9360266666666696,1.7255381481481389,-1.8617571604938288,0.7462953456790192,1.2432746913580282
4.0,-0.00015071848076923802,-2.8421388461536973e-05,-3.472216923076893e-05,-2.6713851923081687e-05,-9.66424653846134e-06,-4.4350934615386604e-06,4.00255692307732e-06,-9.75785519230799e-06,-1.8449966666666704,1.0957203703703722,1.25043814814815,-0.14039555555561622,1.070208518518518,-1.7715944444444447,0.8041840370370349,0.5171245185185169,1.1640548148148153,-1.61374185185185,1.7954633333333416,-1.6704318518518586,0.7015350740740709,0.2622925185185193,0.9756129629629613,-1.3244381481481464,0.8389468148148069,1.2978866666666686,1.1891200740740797,0.9729293333333303,1.5209388888888893,-1.601952592592592,0.9371209629629628,-1.5677833333333278
4.033333333333333,5.516210718954314e-05,-2.9374742483661163e-05,-3.831462941176396e-05,8.869679673206547e-06,-9.887751176470495e-06,2.8841576470590107e-06,6.089742614380396e-06,-2.9752135294114837e-06,1.5758925925925957,1.5387411111111131,1.2415845679012318,-1.766471481481474,0.8765460246913577,-1.6679471604938232,-1.6076703703703874,1.1409781481481434,1.5672887654320986,1.2461620987654423,0.9300573209876644,-1.4876659259259306,-1.5116850617284074,0.5218994938271584,1.4124680246913595,-1.5349135802469116,0.0,-0.9707427037037057,-1.040267259259245,0.45023365432098283,1.0410149135802416,1.7083307407407347,1.0407656790123405,-1.515913209876542
4.066666666666666,-1.701423529411696e-05,-2.0113376470584797e-05,-3.1479952941175434e-05,1.956818366012023e-05,-2.9755381045751117e-05,-2.50238117647076e-06,-1.4787205882350879e-05,-6.88182e-06,-1.0653806172839504,0.8571006543209944,1.5915050617283901,1.829082469135808,0.9238923333333325,1.894831975308644,-1.5339644444444274,1.052104691358031,1.876230246913579,1.6787929629629537,1.3432370370370341,-1.9297451851851826,1.7382704938271578,0.6903948641975276,1.6274137037037089,1.9776865432098762,0.8549618765432031,-1.8367428395061673,-1.874241728395071,1.0587669012345617,1.2956953086419813,-1.86081493827161,1.551670987654322,-0.8735620123456757
4.1,-3.2139932692305806e-05,-2.7530513461537766e-05,-4.002237692307643e-05,1.622975384615464e-05,-5.63585653846134e-06,-3.4505915384620345e-06,2.22723038461598e-06,-7.843726730768636e-06,1.8000892592592628,0.9351814814814732,1.774277037037036,0.35181148148165997,1.1197385185185147,1.876328518518519,0.3130177777779517,1.0245511111111079,1.954209629629627,-1.6443262962962968,0.8652064814814819,2.0479066666666674,-1.869615555555553,0.8211930740740728,1.5336240740740763,-1.8891648148148157,1.35354,1.824410370370373,-1.9118381481481483,1.4760318518518518,1.479311481481481,1.9698766666666763,1.7069866666666587,-1.1249607407407394
4.133333333333333,-1.3006148717948564e-05,-2.744980512820559e-05,-3.8476210256407014e-05,-5.866112307691691e-06,1.6655784615375353e-06,-4.523322307691691e-06,2.8620476923083095e-06,-9.739563846154155e-06,-1.9578435802469212,1.2363127160493927,1.7322,-1.7924807407407415,1.1248622222222244,1.9137750617283933,-1.4338049382716067,1.1604750617283934,1.9733098765432133,-0.5761097530867072,1.1550519753086406,-1.9895756790123484,-1.9672966666666738,0.9602962716049371,1.3933220987654271,-1.7856680246913594,0.8104010123456905,1.450365802469135,-1.5266107407407417,1.371836049382719,1.5465513580246855,1.3503029629629661,-1.4045604938271683,-1.805263086419742
4.166666666666667,-1.948021794871816e-05,-2.566153269230727e-05,-3.7036598076921825e-05,1.344947628210016e-07,-4.301674230769091e-06,-2.8340695512816324e-06,-1.555189807692182e-05,-2.623184230769091e-06,-1.7338987654321003,1.0668775308642005,1.6976913580246908,-1.7823339506172813,1.0058519259259298,2.0205086419753093,-1.9006523456790194,1.0571741975308637,1.9791269135802452,1.8126222222222284,0.9839705679012389,-1.9698274074074094,-1.8611625925925905,1.1376461728395098,1.3545791358024737,-1.6401470370370361,0.6922353827160523,1.912187901234574,-1.523327037037036,1.5042261728395097,1.5463527160493815,-1.8982654320987522,-1.874091358024702,0.910963086419468
4.2,-1.550670769230584e-05,-2.9296130769231386e-05,-3.7475584615386926e-05,-5.87472e-06,-2.7114169230954467e-07,-4.570664615384307e-06,-6.79144038461878e-06,-3.4473619230775406e-06,-1.9063177777777778,1.13735,1.7308644444444445,-1.809641111111111,1.1650977777777778,1.8629044444444445,-1.8575322222222221,1.0223144444444443,1.9546633333333334,-1.1243677777777779,1.1744933333333334,-1.9269077777777779,-1.93273,1.3128022222222222,1.4175444444444445,-1.7026644444444445,0.9891915555555556,-1.73176,-1.50259,1.5124355555555555,1.6337322222222221,-1.7519,-1.9671966666666667,-1.6704322222222223
4.233333333333333,-1.0882225000000096e-05,-2.306524166666643e-05,-3.496859999999924e-05,-1.9302691666664372e-05,-3.496855833333429e-06,-4.210217499999952e-06,-1.0266774999999903e-05,-6.783907500000334e-06,-1.8305270370370406,1.1188006172839546,1.6325893827160454,-1.864493209876543,0.9875996296296299,-2.0153327160493846,-1.9359138271604976,1.0024230493827158,1.908803209876543,1.3755690123454447,0.9821296666666679,-1.93183209876543,-1.9601296296296202,1.5524177777777828,1.397203209876543,-1.9133291358024707,1.5530196296296288,-1.9812698765432037,-1.3164390123456742,1.226215308641973,1.6627281481481448,-1.8158530864197557,1.6077725925925883,-1.62747
4.266666666666667,-1.6358833333333e-05,-3.1198430769230624e-05,-3.357847179486985e-05,-3.7662807692308136e-05,-1.7731746153846889e-06,2.7071092307693775e-06,1.9681438461538758e-05,-8.775502307692344e-06,-2.057306913580247,1.1984708641975312,1.5399823456790116,-1.954167037037037,1.079211975308642,2.052082839506173,-1.7790006172839514,1.046981975308642,1.9041841975308638,-1.6151312345679605,1.0832329629629631,-1.9319781481481477,-2.0176198765432125,1.5355643209876537,1.4438028395061733,-1.3759675308642008,1.2597893827160507,-1.3236971604938268,-1.399287901234566,1.0490737777777788,1.687745802469134,2.0303,1.2840618518518543,1.643978024691358
4.3,-1.2763005769231099e-05,-2.743366730769181e-05,-4.17945e-05,1.3356946153859716e-05,-2.1562169230755997e-06,1.2982501923071297e-05,6.358895192332501e-07,-9.5803215384622e-06,-1.9892740740740757,0.9827758148148152,1.8479840740740674,-1.9755511111111075,0.957710592592595,1.870663333333339,-1.7848685185185178,1.019030740740741,2.015383703703701,1.838731851851857,0.9213054074074101,-1.969132222222215,-1.9175114814814904,1.5813596296296337,1.6325425925925812,-1.6067300000002627,0.7067570000000051,1.4173914814814739,2.0508911111111283,1.1465981481481515,1.809933703703701,-1.602249259259559,0.009250370370349679,-0.7415201851851665
4.333333333333333,-1.35958e-05,-3.142870256410313e-05,-3.1710588461538944e-05,-2.3539770512821077e-05,-4.250028076923158e-06,-9.352217692307368e-06,4.7729453846147375e-06,-7.002327692307369e-06,-1.7934258024691367,0.9508969382716053,-1.9790340740740755,1.9943482716049388,1.0701574074074058,1.5802240740740754,-1.501643456790127,1.1827486419753068,-1.7971572839506178,1.7997946913580236,1.033897580246912,1.745185061728396,1.669489135802476,1.0471297530864243,-2.005334444444444,1.643278148148129,1.6858525925925856,0.44665312345680863,1.7717937037037028,0.9735749382716034,1.7817338271604952,1.3166351851851796,0.5252814567901254,1.7886512345678964
4.366666666666666,-2.0772413461538468e-05,-3.7176473076923065e-05,-3.7360456410256365e-05,-1.1984013269230938e-05,6.0877616025641254e-06,-4.19623e-06,-6.616058717948765e-06,-9.776151410256404e-06,-1.8534074074074078,0.6863670987654387,-1.9548139506172852,1.9353613580246933,1.0625935802469173,1.4153530864197548,-1.32290296296296,1.2193553086419786,-1.6547727160493864,1.942228148148144,0.7532579629629724,1.7013722222222238,-1.6209506172839572,0.8231824814814831,-1.100845925925951,-1.5782767901234511,1.4560844444444945,1.4470876543209505,1.5142261728395245,1.2838585185185123,2.0012127160493867,-1.5464993827160585,0.18222181111109792,-1.4554855555555521
4.4,-1.461580769230778e-05,-3.2046292307692216e-05,-3.2511100000000794e-05,-1.4267192307696894e-05,5.319533076923871e-06,-6.003834615386644e-06,-5.306620000002999e-06,-1.29244e-05,-1.984797407407408,0.6697560000000014,-1.8652877777777759,-2.0429870370370367,1.0427529629629633,1.4041188888888898,-1.5513792592592608,1.058267407407408,-1.5943414814814783,1.3862092592595352,0.7216768888888887,1.6258266666666656,-1.697591851851853,1.045441111111114,-0.7789696296296401,-1.1847951851851943,1.3217585185185423,1.1033314814814577,-1.424404814814799,0.9965048148148178,1.919004074074077,-1.3629403703706422,0.39120074074073496,-1.0940807407407322
4.433333333333334,-1.35958e-05,-2.7724187179486663e-05,-3.416593269230804e-05,-8.976718141027197e-06,7.148653974356211e-06,-6.059785384616076e-06,-1.5678861538464303e-05,-1.02388e-05,1.959686419753086,0.578345975308641,-1.6658075308641969,-1.945061111111111,1.2011067901234571,1.2517312345679004,-1.509748148148147,1.0853216049382717,-1.4410691358024683,1.7124638271604933,0.6557313580246903,1.4370412345679004,-1.4340079012345657,1.6352743209876583,-1.8581266666666807,1.8615138271604932,1.1594290123456765,1.2898309876543235,-1.862949753086423,1.2117990123456766,1.8152053086419728,-1.8234134567901243,0.4509304074074066,-1.630897160493828
4.466666666666667,-1.509784230769225e-05,-3.3896942307692245e-05,-3.113817692307751e-05,1.3858322564105504e-06,6.972173461540226e-07,-1.2093745641027994e-06,-8.599045128204247e-06,-1.1377191025641348e-05,-1.9226345679012344,0.37240130864197396,-1.55968111111111,2.0196601234567897,1.1007893827160475,0.9938177777777746,-1.3813844444444452,0.609578740740735,-1.291223950617282,1.6311444444444452,0.3082956790123437,1.3524454320987656,-1.464444567901257,0.2986975308641565,0.7614638641975464,-1.1122308518518285,0.27288561728395244,1.3002708641975254,0.9589039259259309,0.0,-1.0969674074074123,1.5033814814814834,0.8839562345678739,0.5048908024691195
4.5,-0.0007559506538461545,-3.07132057692306e-05,-3.329225192307704e-05,-9.677158076922966e-06,-6.681687692308906e-06,-9.40278788461555e-06,-4.9773780769229666e-06,-6.2039642307689e-06,-1.5401833333333332,0.29944333333333334,-1.0097809999999998,-1.9953933333333334,1.1131766666666667,0.8943006666666666,-1.8772266666666668,0.28601499999999996,-1.6314933333333332,1.7751733333333333,0.15979233333333334,1.6395533333333334,1.8705100000000001,-0.71034,0.6284266666666665,-0.6190233333333333,0.972183,1.51467,1.7093766666666665,1.17092,1.69326,-0.5988833333333332,0.8003053333333334,-1.064834
4.533333333333333,-0.0005875587179487312,-3.20592e-05,-3.57519e-05,-7.5962571794874e-06,-1.0832730769232093e-05,-2.8706553846146124e-06,-5.267886410256741e-06,-7.053972564103446e-06,1.6928145679012379,0.6621965432098733,0.9212066913580251,0.41487419753089094,1.0035147160493822,1.413068148148149,-0.5455222222222202,1.01535375308642,1.291024567901234,1.2116467901234558,1.0619008395061749,-1.9098998765432094,1.956701234567902,0.828056111111113,1.3592555555555557,-1.605731851851852,0.8945990000000004,-1.682817283950617,-1.2898783950617274,0.7436092839506162,1.6059808641975302,-1.7198209876543227,1.697143580246915,0.4839496296296548
4.566666666666666,4.899902371798246e-06,-2.2418584615384116e-05,-1.9770696794871983e-05,-4.772945384615884e-06,3.37850769231644e-07,1.0858553846152348e-05,-4.3522444230769855e-06,-4.038062948717012e-06,-1.0985541358024613,0.7088955555555502,1.1232234567901238,-1.3906346913580279,0.0,-1.6734161728395098,1.366418148148158,0.3759822345679028,0.996649209876542,0.10065901234572872,0.20181716049376774,-2.045022345679013,1.984149135802469,1.3758165432098786,1.4287820987654285,-1.7147449382716033,1.1876262962962987,1.8303774074074028,1.8184939506172901,1.0352445061728368,1.5746513580246908,-0.19356246913574648,1.0267879506172881,-1.9895241975308657
4.6,2.9031317647060243e-05,-3.498176470588555e-05,-3.392200588234939e-05,-9.90641137254831e-06,-5.723330784310172e-06,-6.802831764704816e-06,1.1881106666638238e-06,-2.6691289607878673e-06,0.1381577777780887,0.5492024074073947,1.5416755555555595,-0.3570339259258902,0.5785949259258902,-1.1194440740740528,1.6692444444444228,0.9089219999999929,1.2247759259259077,-0.4034349259259097,0.5771030740740886,-0.5879943703703983,1.758016296296304,0.895046370370393,1.5616714814814847,-1.4670759259259294,1.09975,2.0085229629629646,1.2655085185185024,1.1498803703703788,1.7236981481481366,-1.5427214814814711,1.1136270370370265,-1.971970370370361
4.633333333333333,-2.56809e-05,-4.0150430769231e-05,-3.1516915384613976e-05,-1.1054401282051693e-05,-1.118777051282069e-05,-1.67849e-07,-4.936486025641497e-06,-1.7647843589743178e-05,-0.39870691358035915,0.9253340000000018,1.498011111111113,1.8667828395061763,1.551576790123457,1.6822704938271629,2.016679259259258,1.4339058024691314,1.169123950617285,-1.7816393827160455,1.601808024691353,-1.0410110987654224,0.22817456790135004,0.952439790123453,1.9223318518518506,-1.551576790123457,1.1104401234567873,1.4865720987654343,-1.824213209876543,0.8624716666666661,1.870463580246914,-1.8296818518518507,0.9630318024691366,-2.021701111111113
4.666666666666667,-1.2292792948718077e-05,-3.428102820512833e-05,-1.0534671794871666e-05,-6.447131538461436e-06,3.249381538457938e-07,-4.886993782051128e-06,-7.504795256410643e-06,-9.855732371795695e-06,-1.9106469135802484,1.041907160493827,1.4053591358024702,-1.9780843209876497,0.9514442716049344,1.714647160493827,1.753140370370368,1.517808024691357,1.4303749382716053,-1.6439766666666606,1.716785061728399,-1.4756295061728424,-1.9166606172839513,1.1501262962962973,1.7560224691358004,-1.3458275308641996,1.2996745679012327,1.6833681481481506,1.5241202469135786,1.0733403703703726,2.0214006172839514,1.9025379012345676,0.9930195061728404,2.023692839506173
4.7,-2.03098e-05,-2.3124415384616268e-05,-4.881827692307847e-05,-7.1658738461540665e-06,-3.4473692307681282e-06,-9.94183538460877e-07,-1.7417615384616267e-05,-7.733979999999227e-06,1.8723033333333337,1.1233240740740738,1.4827455555555555,-1.3721833333333333,0.5505455185185184,1.7938274074074063,1.3860655555555554,1.4364881481481482,1.37383037037037,-0.6696067037037022,-1.1658418518518519,1.596881851851852,-2.025677037037037,1.021568148148148,1.923181851851852,-1.603740740740741,1.1130240740740742,1.8351529629629626,1.681174444444444,1.1292892592592596,1.9291492592592592,2.021503703703704,1.0090374074074073,2.0397062962962966
4.733333333333333,-1.2237936538461721e-05,-3.782635384615311e-05,-1.4102530128200993e-05,-1.09102e-05,-5.53902e-06,-3.52483e-06,3.1590130769234444e-06,-2.3972273076923443e-05,1.826248395061729,1.362286543209877,1.493335925925926,-1.7741295061728397,0.9558213086419771,-1.6831190123456798,1.4961695061728397,1.6053849382716059,1.519448641975308,-1.0865677777777187,-1.8550981481481499,-1.907662962962961,1.0548376543209281,1.1355569135802464,1.9314806172839507,-2.00374950617284,1.216821111111111,1.7938240740740738,1.7571209876543203,1.1125341975308645,1.9353162962962958,-1.8756349382716035,1.0497704938271601,2.0411959259259262
4.766666666666667,-1.5736925641025648e-05,-3.675039230769225e-05,-3.95629179487179e-05,-7.213216153846124e-06,-4.912820384615407e-06,-2.85344e-06,-8.002969487179405e-06,-1.1228684615384497e-05,1.9791755555555561,1.4846854320987641,1.4998038271604945,-1.7998376543209886,1.6930674074074046,-1.998627283950618,1.5507824691358032,1.6007595061728426,1.5169071604938258,-1.86514,1.9471995061728424,-1.7736291358024663,1.9405408641975337,1.0643340740740732,1.7476234567901237,-1.6974395061728424,1.1246165432098765,1.7597034567901235,1.7513995061728371,1.082238641975309,1.9523769135802471,-1.9785301234567867,1.0766680246913596,1.3412527160495278
4.8,-1.2027048076922779e-05,-2.6836482692307594e-05,-4.7979026923075934e-05,-1.075846730769196e-05,-6.019980384614839e-06,-9.512535961538612e-06,1.8979917307686353e-06,9.005765384597025e-07,1.8870711111111111,1.6538777777777778,1.4385777777777777,-1.6946066666666668,1.3477166666666667,-1.4994488888888888,1.5186988888888888,1.3181777777777777,1.461852222222222,-1.8664833333333333,1.3790444444444443,1.9913633333333332,1.836051111111111,1.08766,1.7389177777777778,1.535708888888889,1.014256888888889,1.9712177777777777,1.7371266666666665,1.07737,1.98823,2.0164299999999997,1.0075455555555555,1.5947944444444446
4.833333333333333,-1.908750769230794e-05,-4.097676923076823e-05,-3.466731282051545e-05,-9.937534358973734e-06,1.992670769231769e-06,-7.002327692307942e-06,-1.703885897435985e-05,-8.207397435900186e-06,1.8531504938274583,1.666755432098767,1.503783580246912,-1.428132098765441,1.0943274074074094,-1.6640738271607736,1.7669649382715953,1.0196291604938323,1.556897901234559,1.5795692592592645,1.8533519753086536,-1.644523333333326,-2.0236425925925907,1.1001480246913575,1.7602009876543212,-1.853897283950622,1.170270864197534,1.9886274074074093,1.673968148148145,1.1066159259259276,1.9299880246913574,2.008119629629627,1.0067019259259267,-2.052878888888891
4.866666666666666,-1.6435220512819987e-05,-6.13058865384621e-05,-2.8501003205128407e-05,-5.53902e-06,-4.612627115384737e-06,-2.18204e-06,7.322959999998142e-06,1.639975737179253e-05,-1.93765,1.3589525925925945,1.6869450617283936,-1.6896819753086392,1.114119358024689,1.554462592592592,-1.479961728395064,0.7898613950617288,1.9996724691357364,-1.7984001234567286,0.0,-1.8780256790123466,1.9460581481481487,0.9954079012345683,1.800192592592592,-1.5995683950617288,1.099501358024691,1.7488670370370378,1.8209791358024692,1.0191302469135801,1.9535709876543208,-1.8491791358024692,0.9507477283950618,-2.042191111111111
4.9,-1.8553780769231386e-05,-5.1039061538460475e-05,-4.3608523076922854e-05,-1.0561588461538373e-05,5.03548e-07,-4.525474230769186e-06,-5.926366153846507e-06,1.351833076923024e-05,2.0271748148148143,0.569344925925918,-1.8329133333333238,0.9532344444444167,1.114217407407406,0.7131723703703631,-1.7234022222223966,1.070058148148149,2.024781111111117,-1.6546170370370543,0.5541263703703667,-1.9507855555555573,1.9565966666666672,0.9703925925925905,1.968388148148149,-1.648206296296296,1.175394444444445,1.662077407407406,1.4341062962962916,1.1701711111111124,-1.7504018518520317,1.6344744444446189,0.9527868148148136,1.8517151851851836
4.933333333333334,0.0011410965384614947,-2.226151794871666e-05,-3.378934615384307e-05,-8.543094615385645e-06,-3.4280010897443616e-06,-3.940151153846411e-06,-1.1228684615385644e-05,5.2721862820471654e-06,1.6950019753086374,0.611219765432127,-0.5300551111111322,-1.434206913580538,1.0026685185184863,0.5914759876543264,1.393622839506501,1.2493924691358096,-1.911939506172828,-1.5999109876542805,0.3657868395061633,-1.8676285185185346,1.938744567901234,0.6862675308641941,-2.0255323456790104,-1.439024197530861,1.2262704938271596,1.5058723456790104,1.3152925925925962,1.1041269135802443,-1.9202450617283935,1.8684761728395116,0.767232679012347,1.819188148148149
4.966666666666667,-0.00018561089743590066,-4.516861538461435e-05,-3.7025838461536846e-05,-1.2020592307691867e-05,-3.890656923076555e-06,-2.423055384615311e-06,-7.355243076923444e-06,-3.0428092307693775e-06,2.0126496296296303,1.3440848148148175,-1.3862116049382769,-1.800932345679025,1.3607939506172841,1.4441980246913537,-1.178974691358142,1.6315417283950624,-1.905573209876545,-2.0210080246913624,0.5326916543209893,-1.8853834567901246,-1.8200856790123463,0.8515803086419751,-1.9989695061728407,-1.636469259259261,1.17629,1.426846049382716,1.5596825925925912,0.9982431481481483,-1.8383869135802449,-1.2420314814816016,0.7348561728395071,1.7819869135802449
5.0,-7.67587596153844e-06,-3.859243846153837e-05,-6.113587115384813e-06,-8.741071538461627e-06,-5.752060384615407e-06,-5.661679615384593e-06,-1.3557061538468154e-07,-4.22850884615378e-06,1.624781111111108,0.7161567407407461,-1.7251918518518568,1.946605555555555,0.9878488888889027,1.5776362962962798,-1.5564477777777752,0.9257833333333441,1.9946492592592622,1.836494444444447,0.6895995555555495,0.9824740740739049,-1.9036362962962974,0.6639368518518531,-1.708037037037042,-1.7874085185185176,1.2805774074074052,1.3539825925925948,1.3296659259259274,1.0757266666666674,-1.7305629629629649,1.8727474074074053,0.5627798518518558,1.618068888888892
5.033333333333333,-0.000597263500000013,-1.3232083333334002e-05,-1.1833366666665805e-05,-1.0182851666666857e-05,-2.377864999999904e-06,-7.441320000000382e-06,-2.0141900000005733e-06,-5.53902e-06,1.919398765432104,0.6400151604938202,0.9900356790123526,-1.2135386419753083,0.5685489876543248,1.4320179012345653,1.8262519753086452,0.13950104938271904,-1.6069774074074101,-1.6293587654321042,0.7111853086419667,0.9887410123456811,1.987134320987654,0.2573687283950612,-1.1589304938271574,-1.646167160493827,1.3145435802469136,0.9663637283950612,0.978598271604938,0.5850603333333313,-1.647308271604938,1.9418292592592594,0.2613974074074069,1.35354
5.066666666666666,0.00020844331410256793,-3.112203910256272e-05,-3.2741359615384404e-05,-1.3005095512818913e-05,-1.4783614102570498e-06,-2.810401538462391e-06,-4.217749230768805e-06,-3.5033110897440162e-06,-1.8287830864197754,0.8584414567900922,0.5419872839504165,0.5046945679010177,0.6327046543210086,1.7930286419752963,-0.9537336913580171,1.1504804938271633,1.78596456790123,-0.16267345678991374,0.42874904938271013,-1.6120002469136079,-1.6575544444444437,0.6917375925925802,-1.8104864197530615,-1.7147987654321004,1.406503209876544,0.9015120864197506,1.3738277777777828,0.5205567530864113,-1.7965122222222172,-1.7290181481481506,0.3480324197530756,1.2024983950617325
5.1,-4.467368461538451e-05,-3.1813892307692065e-05,-2.4777130769230615e-05,3.757244615382763e-06,-8.67651384615378e-06,-4.506104615384439e-06,1.1297512307692947e-05,-7.33372384615378e-06,-1.9161655555555401,1.0115719999999953,1.3481655555555527,-0.46102111111090105,0.9045953333333268,-1.9859944444444424,1.1758411111111349,0.6346936666666791,1.5124322222222246,-1.5195955555555545,1.5343666666666396,0.3844888888886724,1.3956088888889102,0.4672922222222307,1.2434288888889073,-1.4730422222222235,1.2496933333333409,1.1861344444444404,1.0164924444444388,1.153009999999999,1.5392911111111063,-1.882601111111118,1.067076666666665,1.931385555555541
5.133333333333333,-1.9903867320261593e-05,-6.338775882351531e-06,-3.2413579084964655e-05,7.76604196079058e-06,-8.212548169933543e-06,-6.1676347058828235e-06,9.878970522873624e-06,2.742630718985579e-08,1.5861895061728517,1.470061604938268,1.3152401234567899,-1.4785144444444456,1.1663443209876558,-1.8449502469135797,-1.7720407407407832,1.036239728395049,1.6150318518518478,1.7204175308642249,0.9954572839506464,-1.5749002469136018,1.6176154320987204,0.48504699999999557,1.4534492592592498,-1.3319527160493656,0.0,0.3134701234570436,-1.0866200000000352,0.40562286419754,1.06026074074075,1.8270482716049643,1.0936801234567899,-1.3414002469135797
5.166666666666667,-1.0873628205128243e-05,-2.235406602564066e-05,-5.304144551282009e-05,-8.758315192307326e-06,2.642546538461531e-05,-2.18204e-06,-8.575377371794688e-06,-7.348787307692344e-06,-1.4170419753086376,1.010975740740732,1.72205740740741,-0.25627740740724425,0.8561556790123368,-0.2238470370368717,-1.6523814814814972,1.0900995061728342,1.9002002469135797,1.5207882716049357,1.2570503703703728,-1.7859644444444474,-0.06455740740725702,0.7266504197530842,1.6357203703703729,1.9664472839506106,0.5520373950617371,-1.5964835802469215,-1.8581788888888882,0.8558572469135817,1.5741062962962982,-1.9520286419753086,1.4530502469135798,-0.9639245679012276
5.2,-2.540975769230756e-05,-2.406695769230756e-05,-3.7811280769231365e-05,1.7572553846154642e-05,-4.05420307692268e-06,-3.427995384615583e-06,-9.296246153858063e-07,-6.27497769230756e-06,2.01479074074074,0.8308910000000045,1.8020296296296312,1.810680370370371,1.007690962962967,1.7293714814814796,0.5694940740739025,0.9053417777777829,1.9722644444444455,-1.9734592592592493,0.9635290740740718,1.9479477777777805,-1.7933737037037014,0.8313388518518521,1.61135,0.5318929629627851,1.225822962962966,-0.5459196296294526,-1.7287722222222262,1.432164814814819,1.2619300000000044,-1.9788270370370429,1.525262592592597,-1.1134707407407443
5.233333333333333,-1.4269351923077221e-05,-3.0714248076922785e-05,-3.997284679487522e-05,-5.087981923077221e-05,1.0071e-06,-5.868264294870902e-06,-3.2042033333354173e-06,-7.228279551283539e-06,-1.865089506172841,1.1511241975308661,1.8273445679012343,0.7748928395062904,1.1753446913580252,1.8168,-1.3197676543209873,1.1905591358024685,-2.0535277777777785,2.030849629629632,1.0012775555555535,2.037716296296297,-2.03433,0.9956557777777769,1.4544949382716068,-1.8827954320987657,1.1064154320987702,1.5713180246913598,-1.7067425925925943,1.5270585185185188,1.5273501234567908,1.276849259259264,-1.7205158024691425,-1.4098327160493762
5.266666666666667,-1.729710769230718e-05,-3.2997438461538564e-05,-3.166324615384574e-05,5.737008717944911e-06,-6.2749776923078465e-06,-4.333953076922871e-06,1.2877017948716766e-05,-9.360825384615693e-06,-1.7815350617283952,1.0130679012345687,1.8531544444444434,-1.8479827160493831,1.0261927160493831,1.928450740740742,-1.7260356790123468,1.134012345679012,2.0494549382716047,1.9014422222222216,1.0223169135802457,-1.0429518518517316,-2.012550493827157,1.0461885185185202,1.5676367901234511,-1.6761083950617255,0.6917877160493836,1.6040388888888915,-1.666754938271605,1.5055229629629636,1.497512716049383,1.774580000000009,-1.5452061728395126,1.8469901234567903
5.3,-1.544534807692324e-05,-3.6658905769230805e-05,-5.515463461538458e-05,-3.227869615384708e-05,-1.0706863461538363e-05,-4.66104538461512e-06,-4.6061673076926715e-06,-4.03160788461555e-06,-1.8415714814814783,1.1343618518518541,1.7780107407407404,-1.7584614814814827,1.1634537037037038,1.8166470370370342,-1.8090403703703712,1.052156296296296,2.0079229629629634,-1.2878877777779554,1.0955725925925945,-2.0027007407407424,-1.998525925925925,1.258052222222221,1.5028803703703713,-1.605684444444442,0.8728158888888873,-1.8882625925925967,-1.6329825925925923,1.5109403703703712,1.5600266666666673,-1.8202311111111094,2.006585925925925,-1.7156440740740753
5.333333333333333,-1.1211419230769569e-05,-3.3204023076921724e-05,-3.5476453846156556e-05,-1.8880883333340774e-05,-2.2465976923087066e-06,-6.481562307691293e-06,-1.694419230769569e-05,-1.1783880769230431e-05,-1.9951470370370363,1.1229249382716049,1.69192,-1.7723880246913588,1.0247535802469132,2.0298037037037036,-1.8606124691358024,1.0519075308641976,2.0318435802469135,1.4760306172838922,1.0423039506172844,-2.042887530864198,-1.4902027160493234,1.3901855555555565,1.4723998765432098,-1.703461481481482,1.3814328395061757,-1.9516269135802482,-1.5727067901234555,1.3148445679012337,1.6194609876543204,-1.6891324691358,1.9282006172839496,-1.9000006172839496
5.366666666666666,-2.101558076923043e-05,-2.3264290384615214e-05,-3.205274423077177e-05,-2.1590114102562243e-05,-3.52483e-06,-1.0443234679485995e-05,5.478770128202422e-06,-9.836400384615216e-06,-1.887020740740739,1.163153950617281,1.579378148148148,-1.832661851851852,1.143562469135803,2.0335843209876554,-1.8608612345679014,1.0602062962962957,2.0426387654320988,-1.7893462962962956,1.0602062962962957,-2.0131955555555567,-1.9867872839506202,1.4615027160493796,1.4607570370370346,-1.490105061728403,1.466981111111122,-1.680481111111122,-1.2281114814814782,1.066276790123458,1.495027530864197,-1.2259241975308668,1.1383408641975363,-1.6177707407409598
5.4,-1.15816e-05,-3.07164e-05,-2.85344e-05,7.55322e-06,-4.19623e-06,-1.2253e-05,-3.02129e-06,-1.04067e-05,1.99002,1.12795,1.68386,-1.84903,1.09975,1.92154,-1.80069,1.05544,2.03836,-1.98599,0.974868,-2.02628,1.97391,1.52273,1.5469,-1.19643,0.725109,-1.92557,-1.92154,1.03529,1.60732,-1.44619,1.18837,-1.88125
5.433333333333334,-1.12459e-05,-2.447151923076957e-05,-5.5632301282048496e-05,-4.666528782051155e-05,-7.55322e-06,-2.045605064102091e-05,-1.1514890384615215e-05,1.979759230769569e-06,-1.7708954320987593,1.0295292592592609,1.8324130864197536,-1.9338687654320985,1.085919259259261,1.8303819753086406,-1.7089828395061681,1.1325191358024724,-2.0220012345679015,1.9665962962962957,1.093233580246916,1.9844470370370346,-1.9017943209876464,1.385211481481478,1.7031081481481565,1.5598302469135679,1.468422098765438,1.205235679012345,-1.7445897530864234,0.9855113209876595,1.741503209876542,1.022214197530827,0.7008393703703819,-1.9498822222222525
5.466666666666667,-1.6685961538461317e-05,-2.8973342307691976e-05,-5.032031923076934e-05,-2.661053076923209e-05,-5.0010492307693415e-06,1.7817823076919767e-06,-1.9195085641017923e-06,-8.121323717949049e-06,-1.8506667901234557,0.9117575185185202,1.9583895061728387,-2.0343809876543206,0.9888935185185193,1.6802853086419758,-1.4799535802469133,1.196876543209877,-1.9653014814814818,1.82216839506173,0.8775900000000009,2.0237413580246915,-1.6464619753086434,1.0618532098765443,-1.714848765432101,-1.4805570370370407,1.4589217283950602,1.0083378148148174,1.1763349382716093,0.9993367283950637,-1.843158024691361,1.689387407407403,0.36001797530864216,1.9159154320987664
5.5,-1.782432884615378e-05,-2.63458442307689e-05,-3.37377e-05,-3.282098076922852e-05,-8.453793846153549e-06,-2.45479826923064e-05,5.03548e-07,-6.17814115384622e-06,1.8693155555555547,0.7994100370370373,-1.9754007407407406,1.9864359259259254,1.077961851851853,1.4555877777777764,-1.7557785185185197,1.0484248148148152,-1.6583529629629623,1.734291481481482,0.8487949629629635,1.7069933333333331,1.2822203703704487,0.9330929629629631,-0.7010879259259251,-1.7316051851851908,1.333248518518513,1.1746492592592626,1.55033000000001,1.0242524444444405,-1.1764362962963715,-1.9433255555555566,0.4934020740740777,-1.4282896296296272
5.533333333333333,-1.0376523076922871e-05,-3.064753846153857e-05,-3.0660489743589075e-05,-2.0189271794870972e-05,4.7557320512827205e-06,-7.703848717949748e-07,3.689672307692287e-05,-4.118762820513438e-06,2.0213493827160485,0.7633039012345686,-1.9426228395061735,-1.987885679012347,1.1681802469135807,1.39382,-1.6918702469135807,1.1137256790123469,-1.626320740740742,1.9537177777777783,0.819502469135805,1.6586029629629637,1.8544976543209837,0.8940520864197554,-1.3087795061728342,2.0042940740740725,1.4061561728395038,0.8538175679012364,-1.563557037037032,1.5895182716049352,-1.9888285185185204,1.6800339506172821,0.6133085679012347,-1.9306870370370364
5.566666666666666,-2.0306571794871344e-05,-3.0045e-05,-3.3744155769231675e-05,-5.048391474360783e-06,-1.0245255769231672e-05,-8.435498076929105e-07,-5.12155724357829e-06,-1.5063361923070895e-06,1.9051283950617286,0.6185306666666669,-1.7130053086419754,-1.7941723456790122,1.1425176543209878,1.262177407407408,-1.4927396296296305,0.982925,-1.4753322222222223,-2.0138914814814814,0.5599949629629635,1.4651397530864203,-1.639100740740739,1.2378566666666655,-1.4843344444444448,2.023738765432098,1.236314197530867,1.307483333333331,1.3920296296296306,1.074584074074077,-1.9401376543209878,-1.8200355555555534,0.5504959753086401,-1.6986320987654309
5.6,-2.2330415384615716e-05,-3.0516311538461604e-05,-1.2207769230766915e-05,-6.77207192307646e-06,-1.2401448076927245e-05,-2.324064999998677e-07,-4.2026857692311e-06,-1.0651971153846682e-05,-1.8805062962962986,0.32286707407407794,-1.377405555555563,0.5166748148146385,1.09169,0.9296608518518557,-1.2377596296296245,0.6218629259259308,-1.3022148148148145,1.5425755555555631,0.2525946296296314,1.3797933333333328,-1.497366666666654,0.4250688888889216,1.0245522222222048,-1.289229999999989,0.4765422962962898,1.2279129629629748,1.7417525925925927,0.0,-1.343985555555541,1.1976262962962898,0.33017818518521047,0.7509201111110908
5.633333333333333,0.0009195256923076709,-2.9184230769232916e-05,-3.310293269230823e-05,-9.100442692308229e-06,-9.14455711538703e-06,-3.1816043589730173e-06,-4.516862628202445e-06,-2.394004423078801e-06,0.3266434567896961,0.9305070987653732,0.5397008641971459,1.913580864197534,1.162458641975308,0.977056753086416,-1.589222592592603,0.6517525925925837,-1.7506543209876364,1.3441850617283904,0.4498362592592338,1.6102116049382527,-1.8774760493827052,1.195481604938221,0.08937370370332776,-1.5723135802469357,0.8173137407407449,1.542866172839468,1.376807654320958,1.0515051851851884,1.6038416049382707,-1.722753703703734,0.4362589135802483,-1.1186446419753628
5.666666666666667,-0.00014597964052285607,-3.7656394117645806e-05,-3.632563267973841e-05,-8.126971764705725e-06,3.1035635947721816e-06,-2.85344e-06,1.9560458823541946e-06,-6.015143529411451e-06,-1.5863353086419414,0.250157172839487,1.2022959259259238,1.76646987654321,0.9515437654320849,1.4069493827160617,-0.4811678888889101,1.0170456790123443,1.2812737037037065,1.2402476543209817,1.1167551851851958,-1.6636204938271593,1.7964560493827137,1.262720123456812,1.0444928395061863,-1.4222188888888911,0.9806871975308615,-1.6150816049382681,-0.9066847037036834,0.5209543703703619,1.3864620987654164,-1.315890864197562,1.828237654321004,-1.9560535802469168
5.7,-0.00014215507692307683,-1.7766215384615497e-05,-2.029687692307655e-05,-8.715248461538374e-06,7.3724561538460654e-06,2.7578907692307184e-05,2.969638461535815e-07,-1.0264589230769695e-05,-1.6140400000000001,0.6364842222222222,0.9645735555555556,-1.3369777777777778,0.0,-1.3418977777777779,0.6185804444444445,0.181277,0.8338748888888889,-1.2671533333333334,1.3351822222222223,-1.6869977777777776,0.21842555555555565,1.5563011111111111,1.2304466666666667,-1.7572711111111112,0.9780033333333333,-1.6153766666666667,-0.18933444444444447,1.0514088888888888,1.6001611111111111,-1.8839422222222224,1.313698888888889,-1.9251177777777777
5.733333333333333,2.443493653845962e-05,-2.4402657692306413e-05,-4.524823653845962e-05,-1.0249559615384402e-05,-2.8749589102559838e-06,5.831681858975212e-06,-3.135341923077989e-06,-1.5213996153844021e-06,-1.791888765432074,0.7444547901234623,1.470262839506176,-0.9044477777777897,0.9320962962963155,-1.4003379012345867,0.5386612345676789,0.8129871111111245,1.2545666666666608,-1.2217437037037162,1.0965681481481506,-0.5461194691357892,1.47930851851851,0.6623453456789984,1.5610222222222263,-1.6213512345679082,0.9812329382715997,1.99808,1.1955820987654486,1.035838333333326,1.7321534567901347,-2.023440246913582,0.9096187901234623,-1.9306930864197576
5.766666666666667,-2.593271666666638e-05,-3.661908333333324e-05,-2.5988633333334574e-05,-1.085425000000019e-05,-1.9862150000000956e-06,-8.89601e-06,-5.119403333332474e-06,-5.930671666667623e-06,1.7542828395061751,0.842080864197531,1.5729570370370376,-0.7738981481482061,1.6190116049382728,1.7166834567901241,1.9878838271604944,1.457676543209876,1.302116049382714,1.9556570370370376,1.6909281481481486,-1.1604699999999957,-1.95943790123457,1.0034663580246903,1.8485790123456785,-1.5024833333333347,1.196630123456787,1.3827776543209889,-0.7286388888889486,0.9513944814814808,1.8345053086419756,-1.7551830864197517,1.0519576543209868,1.9748051851851862
5.8,-9.690069615384594e-06,-4.609718846153847e-05,-5.760457884615378e-05,-9.109050384615407e-06,-6.071620961538517e-06,-5.112945576923033e-06,1.9689996153845933e-06,-9.047693461539068e-06,1.9798729629629634,1.0533503703703708,1.4326122222222193,-1.938095925925935,0.7659891111111192,1.7739777777777808,1.5739014814814885,1.5139240740740785,1.2082137037036995,-1.3480155555555642,1.7362296296296238,-1.5564474074074046,2.019561111111115,1.1774814814814805,1.8338081481481487,-1.3693537037036996,1.349955555555559,1.8056081481481487,1.4505162962963003,1.1828522222222193,1.9724125925925953,1.9580933333333317,1.0506611111111095,1.9662955555555588
5.833333333333333,-2.0017138461538108e-05,-3.772306153846189e-05,-8.59474205128452e-06,-4.269395384615473e-06,-5.349656410256587e-06,-6.838781538461891e-06,-1.29244e-05,-2.1902179487180193e-05,1.8788638271604943,1.1302346913580232,1.4953260493827158,-1.351742962962961,0.6055503086419716,1.810684567901229,1.5402869135802448,1.5008446913580231,1.4203264197530856,-0.8037874074073946,-1.3308586419753072,-1.226614074074193,1.9086041975308636,1.05141,1.9408839506172841,-1.633082098765432,1.2245782716049376,1.7418520987654318,1.667596790123455,1.2118474074074086,1.8876164197530856,-1.8950772839506187,1.0231085185185174,-1.2572002469136987
5.866666666666666,-1.3516178846153589e-05,-2.9134736538460765e-05,-1.4540494230767944e-05,-9.280128269230382e-06,4.325347243582024e-07,-5.53902e-06,4.5190062820821554e-07,-1.2316486474352672e-05,1.892245432098766,1.3762146913580207,1.45022,-1.8103818518518509,1.0110235802468985,-1.7876519753086375,1.5051698765432133,1.612991851851851,1.4874180246913624,-1.9821603703703727,-1.666209506172828,1.471356419753429,2.033036419753085,1.0113207777777802,1.9510335802469152,-1.8830922222222237,1.1874771604938301,1.7448372839506168,1.74832,1.060554567901234,1.987084567901234,-1.833457283950617,1.0228630864197557,2.0198604938271596
5.9,-1.5261388461538946e-05,-2.5797153846155786e-05,-2.9689934615385345e-05,-9.06386e-06,-7.72752538461514e-06,-1.51064e-06,-1.12459e-05,-2.0438911538456688e-05,1.9152703703703726,1.5003503703703724,1.4843811111111085,-1.7959151851851793,1.7108666666666652,-1.8444059259259156,1.4566366666666695,1.6117992592592552,1.3993418518518537,-1.6980388888888915,1.8245551851851753,-1.8488792592592638,1.9585377777777737,1.1233229629629622,1.692517037037038,-1.7393651851851841,1.093034074074071,1.7984503703703725,1.8026218518518493,1.0913914814814811,1.9724181481481464,1.9243759259259245,1.016792814814812,2.047016296296297
5.933333333333334,-1.7342298076923158e-05,-3.285110769230737e-05,-3.0421586538462106e-05,-9.513611923076843e-06,-1.4320998076923157e-05,-3.6593251923078945e-06,2.9890079487191616e-06,5.9618728846152635e-06,1.99409975308642,1.6558092592592593,1.34951,-1.71604024691358,1.219356666666665,-1.4306270370370378,1.4705091358024691,1.2967420987654317,1.4300302469135802,-1.9505854320987666,1.5301930864197524,1.9136783950616714,1.9028919753086437,1.040066049382717,1.8000434567901227,-1.69595,1.132178888888889,1.9216891358024693,1.6356195061728398,1.0676692592592594,1.925321234567901,-1.9259677777777782,1.0155976543209881,-2.038111358024691
5.966666666666667,-1.9664223076923826e-05,-4.416159743589956e-05,-3.8592420512820134e-05,-8.345117692307943e-06,9.481333076922203e-06,-7.983598205127706e-06,-6.089912307692058e-06,6.769920769224271e-06,2.057505432098767,1.6407435802469121,1.456678888888891,-1.1559958024691197,1.1352044444444453,1.8238629629632248,1.8886169135802588,0.9466197160493773,1.7133560493827253,1.6715297530864146,1.4318701234567877,-1.4266977777777823,-2.042640246913585,1.1214816049382694,1.6627254320987668,-1.6524355555555545,1.1039790123456787,1.9579890123456787,1.8270993827160518,1.052603580246912,1.8613090123456788,-1.9829550617283938,0.9770562469135773,-1.9938509876543213
6.0,-1.09102e-05,-1.0445395769234475e-05,-3.3253517307692154e-05,-8.318218653846078e-06,-5.726237307692154e-06,-2.927681346153923e-06,2.51774e-06,-2.2850117307687445e-05,-2.0616344444444445,1.231341111111111,1.753241111111111,-1.7769644444444443,1.2246255555555556,1.5325766666666667,-1.6986377777777777,0.909967,1.804268888888889,1.9716666666666667,0.07877724444444445,-1.8512611111111112,2.007025555555556,0.9654685555555556,1.7720433333333334,-1.5983744444444443,1.0993033333333333,1.8172466666666667,1.8150066666666667,0.9900864444444444,1.9461577777777779,-1.8526044444444445,0.9645734444444445,-2.050442222222222
6.033333333333333,-2.023663461538469e-05,-2.333318974358947e-05,-4.389037307692306e-05,-1.1753753846153875e-05,-1.17494e-06,-3.52483e-06,8.114864358974468e-06,1.903155769230756e-05,1.9945990123456776,0.6894502962963034,-1.8392282716049495,0.880872246913612,1.2042896296296195,0.6382252592592719,-1.315488518518235,0.9884947530864221,-1.3602964197527925,-1.9478432098765288,0.2823841358024659,-1.7529912345679168,1.8261038271604926,0.941696197530869,1.9762418518518476,-1.6423344444444457,1.1661420987654314,1.6580529629629674,1.4839888888888912,1.1398824691358007,-1.3316520987651335,1.810280617283953,0.9044459382716058,1.922384074074076
6.066666666666666,0.000712783512820576,-6.0944363461538825e-05,-4.3853790384616475e-05,-9.918173012820878e-06,-5.661680064101472e-06,-3.2343299358985274e-06,-2.4122961730743756e-06,-4.777249679484997e-06,1.7232514814814803,0.7327678271604923,-0.6258413827160443,-0.9900343209876068,0.8188558395061747,0.7092934938271593,0.9739229629629058,1.2484481481481455,-1.7986513580246943,-1.7907393827160492,0.3245580864197547,1.020022345678957,-1.9921125925925935,0.7547000987654326,-1.9087090123456798,-1.5604251851851847,1.2388493827160492,1.4497201234567907,1.3658711111111108,1.1450053086419754,-1.9122859259259262,1.9405403703703696,0.8047311604938271,1.7689054320987658
6.1,-0.00016376884615385354,-4.188483846153879e-05,-5.1684646153844055e-05,-1.1194253846154066e-05,-6.339536923077805e-06,-6.21042e-06,-4.260789230786874e-07,4.002561538465949e-07,-2.027023333333335,1.1269029629629497,-1.2389496296296147,-1.6674529629629318,1.5358588888888927,1.1853870370370505,-1.7906907407407484,1.7893462962962976,-1.8220240740740743,-1.9339255555555581,0.5418919999999983,-1.9389962962962932,-1.8861785185185165,0.7656909629629655,-1.8663340740740744,-1.709674814814814,1.2798359259259255,1.3672618518518511,1.444097407407409,1.1186959259259257,-1.8102366666666694,2.010462592592595,0.741222,1.6870014814814835
6.133333333333333,-2.3470910256413553e-05,-4.268324423076948e-05,-4.549144807687236e-06,-7.67157224358949e-06,-3.5151498717952523e-06,-2.18204e-06,-2.281028461538969e-06,-4.482435769230515e-06,1.8672780246913525,0.8558073703703725,1.996086296296297,1.7197724691358005,0.774443580246918,1.4293813580246875,-1.5813170370370333,0.6665233456790256,-1.803667283950621,-0.4753520987653177,0.8091579629629544,1.582704197530878,-1.9833602469135787,0.6244488765432116,-1.7843240740740753,-1.7779592592592595,1.2539743209876542,1.2899783950617294,1.3481161728395077,0.9976478271604954,-1.7048493827160487,1.8211285185185189,0.5491027901234597,1.5745981481481508
6.166666666666667,-0.0003871271666666826,-1.685811538461703e-05,-4.3692441025641375e-05,-9.659942692307752e-06,-7.5704353846155016e-06,-1.0101082435896495e-05,-3.0966073076922488e-06,-5.018264615384498e-06,-0.2798977777778928,0.41169034567900165,1.4540016049382802,-0.9314016666666713,0.7593746666666696,1.406848518518516,-0.17376913580257236,0.5382614938271783,0.5038937037038116,-0.16705592592583485,0.05241876543209513,1.307284197530873,1.892144320987656,0.21584181481481493,-1.0045591481481435,-1.65164,1.2051309876543213,0.9487584320987648,1.041507530864199,0.41611699999999824,-1.6821725925925926,1.9585388888888915,0.10021235061728231,1.4444983950617285
6.2,0.00010988168627450672,-4.3262327450980495e-05,-3.894434117647017e-05,-7.73422980392518e-06,1.17494e-06,-2.6033105882350876e-06,-4.821553529412281e-06,-5.53902e-06,-1.9258651851851802,1.2498437037037076,1.5949448148148038,1.7854692592592472,0.5078745185185136,1.7505522222222278,-1.0688615925925997,1.1412244444444433,1.762942222222223,-1.607177407407402,0.5451742962962981,-1.1850892592592497,-1.3790477777777796,0.8025428888888928,-0.09235407407398322,-1.6086685185185177,1.3778540740740741,1.0023191111111127,1.274757777777772,0.7273466666666722,0.2084322222223136,-1.7189255555555567,0.5730747777777845,1.1870314814814824
6.233333333333333,-0.00018293460256410356,-1.6980775000001623e-05,-3.5621705128205814e-05,-2.9403776923079422e-05,-4.172558846153972e-06,-5.756364935898061e-06,-1.4751339743591617e-06,-1.5250628846153972e-05,-1.8544482716049426,1.048025037037039,1.2327849382716056,0.2189254320987124,0.9997374567901233,-1.7651265432098762,0.7340108148148131,0.4296937654320972,1.2331332098765437,0.23792506172833705,0.016017407407354467,0.0320746913580785,0.9870044197530843,0.420791950617284,0.9934184074074066,-1.4343524691358016,1.1072100123456752,1.3420939506172858,0.989438074074076,1.0799528395061728,1.574150987654322,-1.7511524691357994,0.9814326913580245,0.29715271604932636
6.266666666666667,4.327932051282177e-05,-3.734432307692363e-05,-1.7099130769236358e-05,4.376987948725491e-06,-1.356993333333459e-05,-7.759795897436737e-06,-1.0497030769229092e-05,-2.638247692309089e-06,1.3165837037037027,1.5688290123456792,1.3779529629629623,-1.5860898765432083,0.950650172839505,-1.736628518518517,-1.7928756790123492,1.0583238271604933,1.653029135802469,1.6415419753086424,0.7218757283950628,-1.50661,0.5348296296296529,0.48405265432098743,1.5615213580246914,-1.532770617283949,0.0,-1.4395739506172869,-0.9212559506172834,0.4241736419753081,1.002024259259259,1.39785,0.9792430740740734,-1.4085908641975302
