X [s],L_Quad: EMG 1 [Volts],L_Hamstrings: EMG 2 [Volts],L_AnteriorTibialis: EMG 3 [Volts],L_Calf: EMG 4 [Volts],R_Quad: EMG 5 [Volts],R_Hamstrings: EMG 6 [Volts],R_AnteriorTibialis: EMG 7 [Volts],R_Calf: EMG 8 [Volts],L_Quad: Acc 1.X [g],L_Quad: Acc 1.Y [g],L_Quad: Acc 1.Z [g],L_Hamstrings: Acc 2.X [g],L_Hamstrings: Acc 2.Y [g],L_Hamstrings: Acc 2.Z [g],L_AnteriorTibialis: Acc 3.X [g],L_AnteriorTibialis: Acc 3.Y [g],L_AnteriorTibialis: Acc 3.Z [g],L_Calf: Acc 4.X [g],L_Calf: Acc 4.Y [g],L_Calf: Acc 4.Z [g],R_Quad: Acc 5.X [g],R_Quad: Acc 5.Y [g],R_Quad: Acc 5.Z [g],R_Hamstrings: Acc 6.X [g],R_Hamstrings: Acc 6.Y [g],R_Hamstrings: Acc 6.Z [g],R_AnteriorTibialis: Acc 7.X [g],R_AnteriorTibialis: Acc 7.Y [g],R_AnteriorTibialis: Acc 7.Z [g],R_Calf: Acc 8.X [g],R_Calf: Acc 8.Y [g],R_Calf: Acc 8.Z [g]
0.0,0.0,0.0,0.0,0.0,0.0,0.0,0.0,0.0,0.0,0.0,0.0,0.0,0.0,0.0,0.0,0.0,0.0,0.0,0.0,0.0,0.0,0.0,0.0,0.0,0.0,0.0,0.0,0.0,0.0,0.0,0.0,0.0
0.03333333333333333,0.0,0.0,0.0,0.0,0.0,0.0,0.0,0.0,0.0,0.0,0.0,0.0,0.0,0.0,0.0,0.0,0.0,0.0,0.0,0.0,0.0,0.0,0.0,0.0,0.0,0.0,0.0,0.0,0.0,0.0,0.0,0.0
0.06666666666666667,0.0,0.0,0.0,0.0,0.0,0.0,0.0,0.0,0.0,0.0,0.0,0.0,0.0,0.0,0.0,0.0,0.0,0.0,0.0,0.0,0.0,0.0,0.0,0.0,0.0,0.0,0.0,0.0,0.0,0.0,0.0,0.0
0.1,-1.96384e-05,-2.5999047873773294e-05,-3.66353652491822e-05,6.118122223590289e-06,-2.8268234038869173e-06,-5.463900142389858e-06,-1.3633332364825853e-05,-8.75906868770445e-06,-1.4800596296296296,0.6861679259259259,1.8335107407407407,1.2570055555555555,0.9408511111111111,1.8793140740740741,1.0625940740740742,0.6821389629629631,1.9449637037037038,-1.1515225925925927,1.0681214814814814,-1.8758822222222222,-1.7620462962962964,0.820149037037037,1.4664781481481481,-1.2210459259259263,1.1552474074074073,1.9727103703703703,-1.8166518518518517,1.42351,1.451709259259259,-1.5264562962962964,1.7517459259259258,-1.245368148148148
0.13333333333333333,-2.6883124277456635e-05,-3.10521e-05,-3.76490937058446e-05,-7.850106563904996e-06,-6.592800995504139e-06,-8.084036371226707e-06,-2.387756358381505e-05,-9.707983628773293e-06,1.43654024691358,1.1625604938271603,1.9469512345679012,1.8516144444444442,1.2800771604938272,1.5261577777777777,-1.6482544444444447,1.1279997530864196,2.028464074074074,-1.7319037037037033,0.9913296296296294,1.0488253086419697,1.998920864197531,0.8893771481481482,1.4512150617283952,-1.7000744444444444,1.2433745679012347,1.5082072839506175,-1.5674904938271608,1.4249529629629631,1.392578765432099,1.6995274074074076,-1.5705254320987656,-1.628659012345679
0.16666666666666666,-1.8291503468208094e-05,-3.091092684649966e-05,-3.28800649967887e-05,1.0867186660244078e-05,-3.172753872832377e-06,-4.2064713294797645e-06,-1.0255186127167623e-05,-5.117409659601762e-07,-1.5782313580246914,1.1472418518518521,1.8111809876543208,-1.7471197530864198,1.21657,1.9388938271604939,-1.5012420987654318,1.2008051851851853,2.049206172839506,1.8127264197530861,1.14748987654321,-0.7894138271604825,0.763104444444433,1.0898024691358024,1.4297279012345678,-1.9385486419753086,0.44899033333333327,1.8952812345679007,-1.4913986419753085,1.4582264197530863,1.4697162962962962,-0.7238638271604827,-1.5848432098765428,-2.0272222222222225
0.2,-2.057075144508672e-05,-2.29953e-05,-3.7107272254335235e-05,-2.2549012138728157e-05,-2.4245978034681943e-06,-1.5223847976878705e-05,-1.8715674913294335e-06,-7.242746011560647e-06,-1.70401,1.176585925925926,1.7251948148148148,-1.66372,1.1443596296296297,1.8534992592592592,-1.8884181481481481,1.1128785185185186,1.964805185185185,1.9573459259259258,1.0340977777777778,-2.0153814814814814,0.5483040740740741,1.3936718518518518,1.2823696296296296,-1.7413048148148147,1.0209703703703703,-1.7900925925925926,-1.4758825925925927,1.668347037037037,1.3959096296296296,1.9677918518518518,-2.031201851851852,-1.5521214814814814
0.23333333333333334,-1.1230896210661524e-05,-2.8879644508670516e-05,-3.670984161849712e-05,-3.237152575465642e-05,-2.197024682080928e-06,6.536170918432883e-05,1.49145518625563e-06,-9.927685369299933e-06,-1.6550175308641977,0.9811845061728396,1.8266965432098765,-1.785668888888889,1.0687140740740741,2.046314814814815,-1.6969437037037036,1.0704554320987654,1.9635613580246913,1.878967037037037,1.0677203703703704,-1.9145745679012345,2.045872716049383,1.593397777777778,1.2959459259259258,-1.5887704938271605,1.5288482716049383,-1.8757841975308642,-1.5600788888888888,1.5780311111111112,1.7339413580246914,1.853155185185185,1.860863950617284,-1.6505411111111112
0.26666666666666666,-3.0434498076923076e-05,-3.616824711538461e-05,-3.8897452564102564e-05,-1.7160460576923092e-05,-9.88266253205129e-06,-2.0765965705128215e-05,-1.074502471153848e-05,-1.3286949038461537e-05,-2.030702839506173,1.3558235802469136,1.5768414814814815,-1.9779846913580248,1.0272897530864198,2.0303546913580246,-1.8649958024691358,1.08770975308642,1.95177987654321,-1.848477901234568,1.0374343209876542,-1.9756961728395062,-1.9240722222222222,1.711866049382716,1.3478182716049383,-1.272771111111111,1.6978356790123457,-1.2468596296296297,-1.3854616049382715,1.2257249382716051,1.5030823456790123,1.8746430864197532,1.581712716049383,1.585688024691358
0.3,-6.415462196531799e-06,-3.787766551059732e-05,-6.025431464354431e-06,-4.8603538342968316e-05,-1.67849e-07,-1.0240742678227236e-05,-9.861064431599532e-06,-1.4154653179190792e-05,1.9958377777777776,1.027238888888889,1.7711455555555553,-1.9841988888888888,1.1189988888888889,1.8436588888888892,-1.7796488888888888,1.049171111111111,-2.0016555555555557,2.0079244444444444,1.0173877777777778,1.9895755555555557,-1.849922222222222,1.6834155555555557,1.539291111111111,-1.7353411111111101,0.8302935555555566,1.3651722222222225,-1.8082966666666664,0.7483838888888887,1.7621933333333335,-0.512052333333334,0.0,-1.4327611111111125
0.3333333333333333,-1.3563027745664755e-05,-3.295175369299933e-05,-3.6374141618497136e-05,2.5275560179833043e-05,4.540123063583812e-06,-5.277067084136127e-06,6.578892010276157e-06,-6.5215408092485655e-06,-1.8791144444444445,0.9482115802469135,-1.9361076543209876,2.021998888888889,1.0123202469135801,1.5033813580246917,-1.5812149382716052,1.173701358024691,-1.7808920987654322,1.7895453086419753,0.93518112345679,1.7608492592592595,-1.7599507407407404,1.2964961728395066,-1.9015943209876547,1.2885865432098738,1.617616790123456,0.619179012345682,0.42521740740741887,0.8310900864197536,1.7041071604938274,-0.6883046913580353,0.5428367037037032,-0.48235839506173983
0.36666666666666664,-1.8851003468208105e-05,-3.445480867052026e-05,-4.151503204881191e-05,-1.1298499087989358e-05,7.461081490045269e-07,1.511395619781252e-07,7.354641194605113e-06,-9.706260867052027e-06,-2.0367679012345676,0.48484780246913584,-1.8606658024691356,1.8719064197530864,1.0049563950617286,1.334541111111111,-1.2513871604938271,1.1135745679012348,-1.6290553086419755,1.560426049382716,0.6142040740740743,1.6693420987654322,-1.6385072839506183,0.5590992839506161,-1.1813072345679037,-1.52750098765432,-0.798809135802484,1.272968271604937,1.7870622222222239,1.4445488888888884,1.9749018518518517,1.7565733333333327,0.1832667407407405,-1.4011798765432102
0.4,-1.3522062427745553e-05,-2.5805089595375743e-05,-2.8614879190751483e-05,-2.7978426011561035e-05,3.2890531213880216e-07,2.4672842774567398e-06,-1.19173e-05,-8.721368381502964e-06,-1.68386,0.6246971481481481,-1.8911037037037037,-1.9654048148148147,0.9116080000000001,1.4388788888888888,-1.558683703703704,0.954726,-1.6020985185185186,0.9775518518518393,0.7048175555555556,1.5962848148148148,-1.416648888888889,1.3551737037037044,-0.9818807407407417,-1.099147407407408,0.8999707407407422,1.4197774074074063,1.9258629629629633,1.1567422222222221,1.8511170370370371,1.9187014814814816,0.30809640740740735,-1.2322370370370372
0.43333333333333335,-2.40480207692308e-05,-2.71646793589744e-05,-2.7977001923077003e-05,-8.009420653846473e-06,-3.978670576923101e-06,-2.0699298076922997e-05,-2.9411043461538605e-05,-1.4412239615384599e-05,1.806455308641975,0.5205069876543209,-1.802425308641975,-1.9407307407407408,1.0786090123456793,1.2965408641975307,-1.6501413580246913,0.8950966543209877,-1.4293256790123454,1.9167656790123455,0.5301546913580247,1.4383349382716046,-1.9338766666666662,1.2707270370370367,-1.1220779012345672,-1.041606790123443,1.235021901234567,1.0141582098765436,-1.8173991358024695,1.1466013580246912,2.0247316049382715,-1.9858448148148151,0.34206434567901167,-1.4753809876543207
0.4666666666666667,-1.1974004624277375e-05,-2.87022e-05,-3.2691371226718056e-05,-7.21752e-06,-2.2245419075144525e-05,-1.467089658317149e-06,-1.4306632691071953e-05,-8.510181387283213e-06,-2.035278024691358,0.34231264197530836,-1.4054617283950614,2.0317953086419753,1.2136345679012346,0.9289644691358022,-1.3707445679012347,0.7032263333333331,-1.270088395061728,1.736484197530864,0.33843364197530845,1.1969772839506174,-1.4490209876543136,0.7589270370370353,0.7170522098765438,1.5001522222222157,0.2581645061728396,1.1126770740740737,1.096118802469135,0.0,-1.0208193703703698,1.197378024691358,1.1179540740740732,1.1215813950617268
0.5,-0.00026540759730250433,-2.90379e-05,-3.540391040462429e-05,-1.3589653371868981e-05,-2.5546084200385194e-06,-9.616568015414236e-06,3.133836820809273e-06,-8.871430809248566e-06,-1.5952374074074076,0.40716540740740753,-1.1148174074074075,1.983154074074074,1.181214814814815,0.8486456296296296,-1.464838148148148,0.4453601111111112,-1.0164942592592594,1.271475185185185,0.20902811111111122,1.2407403703703703,-1.5991218518518517,0.7257061111111103,-1.168227037037036,-1.6955007407407394,1.0566333333333333,1.3233992592592594,1.6640155555555556,1.2860962962962963,1.443651851851852,1.4496233333333324,0.6124635185185187,-1.6434348148148146
0.5333333333333333,-6.827773121387264e-05,-3.262279653179193e-05,-3.5524003468208076e-05,-4.705924797687894e-06,-1.4578320809248426e-05,-4.262422935131718e-06,-6.666213063583858e-06,-6.88182e-06,-1.811330987654322,0.2438908790123459,0.9384638024691359,1.885479012345679,1.2199037037037037,1.2053851851851851,-0.3077484567901233,0.9521398888888891,1.28689012345679,0.6106731851851849,1.1910059259259256,-1.9604269135802526,-1.9947456790123512,0.8363123456790116,0.9202613580246912,2.0214541975308644,0.4216375802469133,-1.52268024691358,-1.0570247283950625,1.0063456666666672,1.359600740740741,-0.4536159135802466,1.0472788888888884,-0.7911040740740733
0.5666666666666667,-8.652414071933207e-05,-2.551802335260142e-06,-2.8736298008991677e-05,-7.984427450224796e-06,1.2120585228002575e-05,7.026488676942828e-06,-4.353188272318546e-06,7.399057463069983e-06,-1.4278848395061763,0.5009618765432101,1.155395679012346,-1.1298397530864173,0.0,-1.6808281481481466,0.654188999999995,0.17257387654320955,0.7526608271604935,-1.0938753086419721,1.1550012345679002,-1.6783937037037227,1.6500483950617286,1.5031806172839488,0.8984287160493836,-0.4482448212345702,1.0925372839506176,-1.622390617283952,-1.668298148148151,0.5276681358024704,1.5997609876543217,-1.9912135802469133,1.7074877777777768,-1.8851322222222227
0.6,3.899344797687905e-06,-1.82956e-05,-2.8515915606936424e-05,-1.3036946820809268e-05,-1.6881950867052132e-05,6.731434161849677e-06,2.2412252023122317e-07,2.112185549133085e-06,-1.255508888888876,0.555916444444444,1.4506655555555559,-0.7166042222222209,0.7161567777777761,-1.3119099999999988,-1.4157522222222083,0.6705013333333323,1.161964444444445,-0.8222373333333326,0.9175757777777778,-0.1844105555555569,1.7084811111111107,0.6154473333333339,1.4555877777777784,-1.549133333333333,0.9453269999999996,1.5222799999999852,0.7882197777777783,1.16823,1.4439499999999992,-1.8132211111111107,0.5639736666666658,-1.987778888888889
0.6333333333333333,-2.83665e-05,-4.196062846153847e-05,-3.173038615384611e-05,-1.2675207307692292e-05,-5.622084230769236e-06,-8.138102692307709e-06,-1.891317666666649e-06,5.085614756410209e-06,1.7375777777777777,0.7503733333333333,1.450515061728395,1.9082572839506173,1.455094074074074,1.7775116049382715,-1.3136528395061755,1.5000495061728396,1.3004223456790125,-1.9924582716049384,1.3732274074074076,-1.1739502716049384,-1.272371234567904,0.854215802469136,1.8269479012345677,-1.6267734567901235,1.113622839506173,1.311813333333333,-1.2432307407407435,0.883857,1.7500592592592592,-1.6011592592592594,0.9503997654320988,1.2913185185185205
0.6666666666666666,-2.3089246820809387e-06,-6.586870980090016e-06,-4.809896486833657e-05,-4.884016127167624e-06,5.9074922543352495e-06,-5.87472e-06,-4.028165857418225e-06,-3.0429214001284842e-05,-1.9219854320987657,0.9480623333333336,1.3438404938271604,-1.9202967901234573,0.8304933456790129,1.7335983950617286,1.481652222222223,1.4196295061728397,1.2414365432098766,-1.404658641975311,-0.971236913580225,-1.8037207407407392,1.935963703703704,1.1725087654320987,1.8613143209876546,-1.0248967654320986,1.4451434567901242,1.8679296296296282,1.7836809876543225,1.0130655308641972,2.0364693827160494,2.017774567901234,1.061156296296296,1.1085492592592359
0.7,-2.454929441233143e-05,-1.5724128709056348e-06,-4.8931751637764856e-05,-6.452977803468195e-06,-3.4750262813102204e-06,-4.68134412331404e-06,-1.2365546820809171e-05,-1.1843562427745562e-05,1.924223703703704,1.1374914814814812,1.3445814814814816,-0.9929224814814815,0.5187662592592586,-0.8053777777777638,1.4470885185185185,1.540186296296296,1.3490640740740736,-1.1131735555555533,-0.9739711851851841,1.771593333333333,-2.0074744444444446,1.1407762962962964,1.908411111111111,-1.6969937037037033,1.1549559259259259,1.8251555555555556,1.5318307407407403,1.183000740740741,1.86917,-2.0294114814814814,1.0296251851851852,2.012995925925926
0.7333333333333333,-1.0806493063583763e-05,-3.866949306358376e-05,-3.695755671162473e-05,-1.2253e-05,-6.997816531791881e-06,-2.85344e-06,-4.1716542646115895e-06,1.5713706936416236e-05,1.954064938271605,1.502537407407407,1.3506543209876543,-1.6771476543209867,1.266802098765431,-1.6495511111111105,1.4706585185185186,1.7517465432098762,1.4240562962962966,-0.5820267901234242,-1.9597311111111104,-1.802427777777778,-2.024584814814815,1.1290943209876543,1.8459409876543218,1.9181560493827168,1.3201656790123457,1.6720785185185187,1.835497160493827,1.1592780246913577,2.014783456790124,-1.8160032098765437,1.1025830864197528,1.9894265432098763
0.7666666666666666,-1.2770887861271632e-05,-2.6784160693641837e-05,-4.277292427745674e-05,-4.224905722543265e-06,-3.65894208734731e-06,-1.9711764161851024e-06,-1.209019389852304e-05,-1.683809710982694e-05,1.73623,1.7186755555555553,1.3126032098765432,-1.8134167901234568,1.825253827160494,-1.9192503703703714,1.3806893827160494,1.6074708641975313,1.4760816049382717,-1.8448491358024688,1.9102476543209879,-1.8978659259259254,1.6996249382716058,1.0804997530864195,1.7763691358024687,-1.7897956790123462,1.1305313580246912,1.8795625925925925,1.7060954320987658,1.167982839506173,2.0144429629629625,0.2975543209876226,1.0742822222222224,2.000014567901234
0.8,-2.18204e-05,-2.70237e-05,-3.05727721153847e-05,-8.845977788461576e-06,-5.172662499999947e-06,-7.13036711538463e-06,-3.58616240384626e-06,1.7909830769230807e-05,1.833511851851852,1.88528,1.3077322222222223,-1.9434711111111111,1.262527777777777,-0.783445703703703,1.365023333333333,1.3717403703703697,1.3341411111111114,-1.9409333333333336,1.8834937037037038,1.8296311111111114,-0.04491185185187696,1.1012377777777778,1.8239648148148144,-1.735184814814815,1.210157037037037,1.8636522222222223,1.6094096296296296,1.170468888888889,2.050295925925926,1.8194862962962965,0.995309962962963,2.0119511111111112
0.8333333333333334,-1.561e-05,-3.523008426461126e-05,-2.0755890751445213e-05,-6.840854682080947e-06,3.778599974309615e-06,-9.526444682080948e-06,-1.7154659794475428e-06,-2.104264187540138e-05,-2.0295085185185187,1.7485679012345676,1.5407812345679015,-1.2775961728395058,0.9260302839506178,1.6334306172839494,0.2512497530864033,0.8520773086419752,1.764577530864197,1.568337283950617,0.2997910123456767,-1.8077006172839507,1.9566974074074066,1.0853759259259257,1.7473709876543213,-1.64646024691358,1.1842450617283948,1.7409565432098766,1.5982206172839508,1.1556967901234567,1.9592880246913582,-2.0287116049382714,1.0066481604938269,1.9702282716049384
0.8666666666666667,-8.43892465639046e-06,-2.3529573988439296e-05,-3.6281279640333825e-05,-1.216158265895953e-05,-4.963991881824009e-05,-4.104812658959531e-06,1.2374386705202347e-05,-4.013396679511868e-06,-1.4725962962962953,1.2348228395061718,1.9691337037037036,-0.40895432098764006,1.2657558024691358,1.0741867407407382,-1.499501851851853,0.926875654320988,1.851264938271605,-1.0044609506172841,0.2976529259259269,-1.767612839506174,1.8921938271604941,0.943586049382716,-1.986638888888889,-1.512232098765432,1.176932839506173,1.531926172839506,1.496615432098765,1.1568923456790123,-2.0263734567901235,-1.9519749382716052,0.9000199753086419,1.757319259259259
0.9,-0.00011262666666666666,-7.167166666666667e-05,-3.5528099999999996e-05,-8.61626e-06,-4.643826666666667e-06,-2.18204e-06,-4.867626666666667e-06,-6.15446e-07,1.6771500000000001,0.15844966666666666,-0.5706876999999999,1.5227300000000001,1.7510033333333332,0.8217913333333333,-1.9014,1.26491,1.9013966666666666,-1.6825233333333334,0.69691,-1.5348166666666667,2.0343333333333335,0.5505453333333333,-1.88797,-1.34145,1.2192533333333333,1.3427966666666666,1.1010900000000001,1.0796066666666666,-1.8946833333333333,2.0007633333333334,0.5800866666666668,1.5952433333333333
0.9333333333333333,-0.00020694606551059712,-1.820563885677577e-05,2.3236960115604736e-06,-4.600493005780352e-06,1.1954254759152147e-06,-9.211227341040469e-06,-4.908590012845201e-06,7.190780655106039e-06,1.2345235802469137,1.1294851851851857,-0.981532666666667,-1.863644691358025,0.5660128148148156,1.4838901234567903,1.2353722222222225,1.3779579012345682,-2.0574054320987654,1.8167501234567898,0.1442757654320993,-1.436041234567901,-1.9881791358024692,0.6489176419753087,-1.665616049382716,-1.4431090123456791,1.313999012345679,1.2151298765432097,1.3062918518518518,1.093879135802469,-1.6593444444444445,1.787906172839506,0.6390703333333333,1.530086172839506
0.9666666666666667,1.3761914871794883e-05,-3.556597384615386e-05,-4.300379435897433e-05,-1.112363435897436e-05,-7.533403282051309e-06,1.0837000923076904e-06,2.302544974358984e-06,-3.221841948717936e-06,1.3436375308641981,1.3543324691358007,-1.0400189629629577,1.8874214814814816,1.1438603703703718,1.3836285185185184,-1.7279270370370368,1.3397096296296307,1.8033682716049377,1.6624243209876541,0.4335733580246913,-1.794125308641974,1.9565022222222221,0.44844330864197546,-1.0868702469135805,-1.9056269135802468,1.3217059259259258,1.0463372839506173,1.195781111111111,0.9749182592592596,-1.578228148148148,1.6921169135802467,0.41835500000000025,1.429431111111111
1.0,-0.00041152414587332235,-3.276926410748565e-05,-4.104642380038346e-05,-5.53902e-06,1.0199859884836983e-06,-2.85344e-06,-9.941773339731325e-06,-5.1002359500958656e-06,1.537204814814809,0.0,0.6767674444444456,-1.2107520740740731,0.0572925925925933,0.9815822222222224,-1.8642422222222217,0.013129540740740903,-0.8350689259259269,-1.1601774074074083,0.298547666666666,0.5699414814814818,-1.4039692592592596,0.16009051851851835,-1.6807285185185183,-1.6871451851851853,1.345028148148148,0.8361126296296296,1.1152629629629631,0.29407188888888847,-1.723698148148148,-1.9812211111111109,0.14457424444444428,1.3057955555555556
1.0333333333333332,-0.00036319857051281745,-3.0225761538461837e-05,-3.2354013461538486e-05,-4.032685064102663e-06,-6.7796036538462154e-06,-2.9760983974358228e-06,-1.4856826923076973e-05,-5.121556923076973e-06,-1.6926676543209813,-1.688687777777886,1.742099382716071,-1.2791839506172795,1.1439648148148185,1.8028739506172795,-1.1192454320987595,1.459219629629633,1.8944371604938293,-1.1785275308642043,0.5420413827160475,-1.7796460493827324,1.9049241975308657,0.7228706172839525,1.6147366666666694,-1.6343285185185201,1.1202382716049382,1.1753927160493818,1.134217271604945,0.7723555802469114,1.8763780246913682,-1.8193845679012326,0.7395310493827104,1.0220696296296252
1.0666666666666667,-0.0004144091666666695,-3.6638492307692256e-05,-3.7632680769230635e-05,-1.5130105128204562e-05,-4.4114223076922524e-06,-6.3180161538461266e-06,-1.09102e-05,-6.4385238461538734e-06,1.8494760493827156,0.7968731604938258,0.9603958148148152,1.3413048148148246,0.8936539259259255,-1.5412786419753088,0.7478867160493838,0.5226452345679018,0.819800666666667,-1.3529432098765433,1.4412190123456887,-1.265654567901234,0.6942742592592582,0.22384872839506148,1.291069382716049,-1.359998641975309,0.7305791111111124,1.3360341975308634,0.9579594444444417,0.7820035679012355,1.4813974074074079,-1.8067574074074066,0.7501240864197534,-1.5193480246913584
1.1,4.609394230769187e-05,3.8476184615383735e-06,-3.529674423076899e-05,6.391168653843949e-07,-2.1949515384616265e-06,3.2924274999995587e-07,-5.377630576923121e-06,-8.39246e-07,1.8481329629629613,1.7851651851851826,1.139138000000005,1.7053511111111912,0.6730384074074073,-1.613288148148145,1.9795725925926075,0.9198136666666727,1.2881848148148154,0.9229463703703588,1.460065555555548,-1.256258518518512,-1.6825222222222163,0.33510162962963147,1.4884096296296285,-1.7105711111111166,0.0,-1.0617062962962927,-1.7223562962963062,0.45117862962963184,1.1179519629629664,2.002552592592599,0.863714444444448,-1.3008685185185143
1.1333333333333333,-2.419608717948713e-05,-3.501160256410248e-05,-3.421112307692324e-05,-1.1925907692307461e-05,-2.4445730769224655e-06,-5.1602843589742266e-06,1.46029e-05,-1.0428169230769296e-05,-0.9988894938271595,0.7732505679012333,1.28505,-1.9080120987654332,0.7503729135802462,1.6160786419753395,-1.221594123456794,1.0213195925925909,1.8127220987654344,1.0912949135802497,1.1873818518518533,-1.6706376543209882,-1.8290341975308653,0.5818275061728404,1.525117160493827,-1.9622180246913579,0.7199860864197538,1.96292061728395,-1.436538888888889,0.9686512716049398,1.15415987654321,-1.4492190123456776,1.452751358024692,-0.829100580246914
1.1666666666666667,-2.495355000000019e-05,-4.8158716666666714e-05,-3.502455000000019e-05,-2.0281816666665616e-05,-9.371579999996654e-07,5.594973333331421e-07,-5.32921583333233e-06,-1.608553000000239e-06,1.6086660493827152,0.870080666666667,1.63149,1.7125559259259258,1.083284938271605,1.498754197530864,1.5273001234567904,0.7665362592592599,1.832963333333333,-0.8730147407407403,0.6356384691358019,1.9274570370370372,-1.9734574074074072,0.8345214691358025,1.4675702469135805,-1.6097646913580246,1.2772917283950618,1.729817037037037,-1.8627570370370368,1.446836790123457,1.4972664197530863,1.7329518518518514,-1.7197207407407404,-1.5930970370370372
1.2,-6.9915680769231345e-06,-3.218186538461559e-05,-4.1174746153846774e-05,-4.0012707692308464e-05,-5.913454615384577e-06,-3.18914e-06,3.0793907692307114e-06,-1.67849e-07,-1.0670733333333051,1.2774477777777775,1.842314444444445,-1.8311200000000007,1.1512244444444444,1.9439199999999992,-1.2590922222222227,1.2080666666666662,-1.980173333333333,1.0594644444444163,1.1158651111111098,1.1145188888888593,-1.0106733333333051,1.0908011111111104,1.3298122222222235,-1.788602222222222,0.7157091111111118,1.6006077777777774,-1.4475333333333333,1.4810988888888887,1.4569288888888887,1.7362344444444422,-1.418436666666666,-1.8284377777777765
1.2333333333333334,-1.623831153846153e-05,-3.430365576923077e-05,-3.2414267307692296e-05,-9.367280576923e-06,-9.672854230769235e-06,2.2681169230769377e-06,-1.0679944230769234e-05,-7.092708461538468e-06,-1.7125092592592581,1.0162943209876543,1.7873079012345665,-1.6683996296296304,1.143417530864197,1.8974651851851863,-1.7450802469135822,1.1158145679012341,1.9848030864197528,1.6781938271604946,1.1083018518518513,-1.953717407407407,2.0078741975308643,1.244275308641976,1.438631851851851,-0.8531201234568564,0.8099037901234587,-1.8005848148148138,-1.5526713580246914,1.5987227160493829,1.575047407407407,-1.8215776543209892,-1.9791795061728406,-1.7936237037037022
1.2666666666666666,-1.2851210256410147e-05,-3.174506923076901e-05,-2.874098461538422e-05,1.5665943589729254e-06,-8.715248461538594e-06,-4.282737179487153e-05,9.97197179487281e-06,-1.0101081794871486e-05,-1.7455338271604939,1.1579839506172842,1.9339686419753082,-1.7798962962962965,1.1192462962962966,1.9288976543209868,-1.9769912345679015,1.0872156790123455,2.006580864197531,1.9308372839506172,1.064137160493827,-2.025032716049383,-2.036671851851852,1.5254139506172835,1.2748074074074076,-1.74627975308642,1.3601046913580241,-1.98465049382716,-1.466780864197531,1.5002481481481482,1.6549206172839503,1.979478888888889,1.9200933333333339,-1.7569701234567903
1.3,-2.1458926923077034e-05,-4.2943626923077035e-05,-3.403466538461483e-05,2.3369755769224152e-06,-2.211088076922774e-06,-9.296242307695616e-07,7.650053653846099e-06,-1.4079982692307416e-05,-1.8379866666666667,1.1879244444444443,1.6514885185185189,-1.8981162962962963,1.1503229629629628,1.97391,-1.7389185185185185,1.0931825925925927,-2.021053703703704,-0.3255537037036942,1.0746844444444443,1.9913611111111114,-1.780097777777778,1.7760703703703702,1.29714,-1.4006814814814819,1.5407822222222223,-1.6549207407407416,-1.47036,1.4866251851851853,1.5876296296296297,-2.0104603703703705,1.7357844444444444,-1.549734074074074
1.3333333333333333,-1.6341692810457327e-05,-3.029627189542677e-05,-3.2333464705882245e-05,-3.66997588235299e-05,-1.572075294117756e-06,1.1658389542483796e-05,-3.7409496732032944e-06,2.640609673202832e-06,1.911645679012347,1.0693117283950626,1.677152098765431,-1.8826483950617285,1.1812108641975312,1.872697777777778,-1.60618037037037,1.218211851851852,-2.0364693827160494,-1.7899420987654309,1.070555555555556,-0.12821283950612505,-1.890506913580245,1.7575196296296298,1.4214714814814802,-1.1420241975308634,1.4499712345679014,-1.3363286419753022,-1.3305569135802449,0.9168798518518533,1.764477283950615,-1.9073669135802485,1.0328083456790171,1.5125306172839506
1.3666666666666667,-1.5152481045751716e-05,-2.3866369281046105e-05,-2.2541117647059805e-05,-3.160062941176449e-05,-3.709134967320588e-06,7.39963176470561e-06,9.884427450971137e-07,3.708038823529439e-06,-1.9574949382716036,1.0438475308641972,2.004891481481482,-0.11563061728390278,0.9398563333333328,1.678042962962962,-1.7820319753086413,1.03127,-1.8917964197530854,1.6790427160493815,0.8717715061728397,1.877074814814814,2.0208516049382714,1.5821139506172828,1.7808450617283964,1.2264667160493774,0.2693046617283999,1.4992537037037057,1.66029111111111,1.0638423456790114,1.5416267901234573,-1.3587086419753127,0.0,-1.0897993827160495
1.4,-1.4506063461538518e-05,-4.3389046153845435e-05,-1.0490582115383899e-05,2.8669952884620184e-05,-7.77916769230852e-06,-1.8899200000001186e-05,7.127136346153516e-06,-9.56741e-06,-1.9949455555555553,0.5959020000000007,-1.795312592592592,1.7636837037037034,1.002323111111111,1.3180262962962965,-1.348463333333334,1.1503229629629632,-1.6617837037037044,1.4846829629629632,0.8261165185185196,1.661186666666667,1.339812222222211,0.5023544074074101,-2.0247837037037053,-1.1622637037037045,-1.72847703703704,0.07221255555555253,-1.9009503703703714,0.8680415185185159,1.9825611111111117,1.381584444444443,0.4047778888888919,-1.7186300000000034
1.4333333333333333,-2.3408494871794937e-05,-3.2721992307692397e-05,-2.4075589743589855e-05,-1.1900094358972816e-05,-2.199256153847697e-06,-1.8377323076923958e-06,-1.2825387179487334e-05,-1.0419566410256278e-05,-1.8843848148148155,0.503548,-1.9163197530864204,1.989376296296296,0.920311333333333,1.3478153086419755,-1.467723086419753,1.0230607407407408,-1.507558765432099,1.9507809876543205,0.6649814074074073,1.5411818518518519,-1.7221097530864193,0.8423795925925923,-0.39587533333333347,-1.966445061728397,0.4798744938271632,1.9499814814814806,1.4313659259259246,1.331453827160495,2.0080209876543216,1.8112311111111112,0.5033984691358026,-1.1504754320987665
1.4666666666666666,-1.7163688461538665e-05,-2.8376217948717793e-05,-3.198712628205154e-05,-7.0927084615386655e-06,-7.207836346153999e-06,-7.927647756409645e-06,-4.503951282049956e-06,-6.690298846153336e-06,1.9436217283950636,0.5865025432098774,-1.76099987654321,-1.9025869135802473,1.083587407407407,1.2356182716049386,-1.542817407407407,0.9996376049382717,-1.4140651851851862,-0.8928600000000666,0.5870992839506183,1.4232169135802473,-1.4729927160493805,1.736380864197527,-0.8122903703703623,-1.5188962962962929,1.5757950617283962,0.9423920493827137,-1.4357461728395053,1.21254,1.877669259259258,-2.049305679012346,0.4999665432098754,-1.33762345679012
1.5,-1.415099615384622e-05,-3.17235e-05,-3.433163076923081e-05,-1.0348593461538494e-05,-4.8256680769231765e-05,-4.712691538461626e-06,-6.804350769230813e-06,-6.66232384615378e-06,1.8866222222222233,0.3961245555555552,-1.4255966666666662,-1.1145188888888593,1.18434,0.970392333333333,-1.285056666666666,0.8441696666666656,-1.1959844444444443,1.6561144444444438,0.258264444444444,1.0827388888888887,-1.4027700000000014,1.7635399999999954,0.4945959999999997,1.0209722222221933,0.3303273555555529,1.1288444444444437,1.5947944444444386,0.2788535555555529,-1.537502444444439,1.8705122222222181,0.7448018888888914,1.7836811111111055
1.5333333333333332,-6.484579166666475e-05,-3.305231666666671e-05,-3.3639791666667e-05,-1.0266774999999903e-05,-1.1427738333333858e-05,-6.252383333333763e-06,-1.02388e-05,-2.5736899999998087e-06,-1.4404696296296298,0.021982037037036762,-0.5354270740740735,1.9377033333333331,1.1675832098765433,0.7293360370370369,-1.5062640740740734,0.14800527160493793,-1.21254,1.202247901234568,0.0,1.148284197530864,1.9038346913580246,0.1480553950617265,-0.3796130123456784,1.9182093827160498,0.8044825679012342,1.0690611111111108,1.489409753086419,1.168779259259259,1.5377964197530867,1.1615160493827152,0.042670975308641446,1.0613556790123524
1.5666666666666667,-8.837910256410336e-05,-2.768649230769254e-05,-3.429284615384605e-05,-8.827148461538378e-06,-1.0518543076923292e-05,-7.3638507692307025e-06,-5.53902e-06,1.6569707692307031e-06,1.450370370370368,0.875401950617288,0.5435831728395076,1.918306049382716,1.1054645679012354,1.1080538271604925,-0.3080968888888919,0.9354300864197534,1.1539041975308622,1.018335753086423,0.8786350246913547,-1.8465911111111109,-1.443354074074074,0.587546740740739,0.9083753333333331,-1.753338148148146,0.7260035185185193,-1.8344532098765463,-1.2841064197530927,1.034497283950621,1.6539782716049412,-0.5963994938271586,0.5582045555555507,-0.08439703382715123
1.6,3.2779044230769396e-05,-2.0445371153846306e-05,-4.577115384615409e-05,-9.56741e-06,1.9270371153846305e-06,-4.570659423076741e-06,-7.243337884615264e-06,-7.68555807692285e-06,-1.1619607407407493,0.4926560000000017,1.092734444444445,-1.3405533333333344,0.0,-1.869614074074069,0.9769599999999913,0.12562562222222115,0.8808725925925935,-1.5771818888888791,1.5846466666666632,1.8324688888888425,1.7341414814814808,1.7547303703703685,0.682139185185187,-0.5694937407407439,1.0772196296296315,-1.7932251851851866,-1.082735185185193,0.3658367777777802,1.482000740740742,1.6125437037037043,1.8606640740740725,-1.5810677777777797
1.6333333333333333,-2.4230503846153828e-05,-1.7839392307692344e-05,-4.051839358974354e-05,-8.22461e-06,-2.5949906410256458e-05,-5.969404615384689e-06,8.521544230768679e-07,-2.3283733333331865e-06,-1.689785432098775,0.32664675308642016,1.5334754320987651,-0.5633764444444456,0.4793281111111125,-1.1125295061728404,-1.9321334567901338,0.6449882345679016,1.1205862962962962,-0.4212389629629636,0.6376776049382715,-0.427705012345678,1.573954444444444,1.127750987654321,1.5494861728395057,-1.3985462962962962,1.0421564197530866,-1.7835754320987656,0.694323641975308,1.32937,1.192252469135803,-1.3872008641975302,0.3968204320987647,-1.83504913580248
1.6666666666666667,-1.9597513461538487e-05,-4.337504358974375e-05,-1.7263708974358886e-05,-7.55322e-06,-1.7796353846153947e-05,-3.066480384615459e-06,-8.101951602564177e-06,-2.279087948717961e-05,1.5191482716050273,0.7562416666666648,1.45022,1.6221477777778666,1.496070617283949,1.787502839506171,-1.6912200000000925,1.522625679012349,1.2527256790123489,-1.995337901234571,1.4726927160493855,-1.131780407407414,1.8299260493827236,0.5575083703703787,1.8911037037037055,-1.6022551851851854,1.0673724691358035,1.5361066666666618,1.8024749382716143,0.718046432098763,1.8614150617283927,-1.264710123456789,1.0377270370370364,-1.9365528395061709
1.7,-5.642313076923022e-06,-2.2737069230769296e-05,-3.598430769230789e-05,-6.184596923076901e-06,-3.576476153846198e-06,-1.3156807692307604e-05,-1.0290493076922977e-05,-8.327903076922879e-06,-1.3954618518517878,1.07155,1.255665925925926,-1.4590233333332703,0.8149271111111129,1.7481662962962976,1.6856537037037056,1.4803574074074082,1.3835211111111112,-1.7341455555555596,-1.44992111111105,-1.5509233333333299,-1.9648096296296282,1.188077037037038,1.9530166666666662,-1.2222418518518516,1.5649488888888896,1.545407777777775,-1.8071040740740725,0.9777033703703703,1.9740537037037023,1.82783777777778,1.05141,2.0056866666666653
1.7333333333333334,-2.4506e-05,-7.122798461537497e-07,-2.9291826923077116e-05,-7.981442692307712e-06,-5.076359294871699e-06,-6.4245363461538555e-06,-1.5622933974360133e-06,4.3468397435881993e-07,1.192501604938303,1.1538576543209882,1.3738769135802469,-0.9605456296296282,0.46251792592592716,-1.233875185185214,1.3791946913580246,1.5335703703703707,1.2585976543209882,-1.0626960740740796,-0.7680283703703741,1.5957359259259267,-1.9378008641975302,1.2146814814814817,1.9410871604938276,-1.7289209876543223,1.1838980246913577,1.814216543209876,1.3218059259259267,1.2765501234567898,1.9263597530864192,1.9894271604938276,1.0901974074074074,2.015485679012346
1.7666666666666666,-4.6739569230767464e-06,-3.91089e-05,-4.1153176923075986e-05,-8.543094615384498e-06,-1.02388e-05,-4.902055512820748e-06,-1.4030481153850272e-06,-2.0714308974359446e-05,1.9877856790123458,1.5575923456790122,1.2763513580246912,-1.6543727160493824,1.3983483950617281,-1.5601749382716048,1.477670987654321,1.700025185185185,1.4479783950617284,-0.9618374074074008,-1.964455061728395,-1.9607254320987653,-1.9710722222222221,1.0557330864197532,1.8552464197530865,1.9584386419753088,1.2056297530864197,1.80471,1.785717037037037,1.1111361728395062,0.9267271604938201,-2.022194814814815,1.0518034567901235,1.951580864197531
1.8,-8.55385423076919e-06,-4.280805576923081e-05,-4.98512e-05,-1.0019307115384642e-05,-5.316305961538468e-06,-6.132954230769093e-07,-6.662323846153874e-06,-1.9670678846154053e-05,1.88931,1.7147500000000004,1.231343333333333,-2.0329866666666674,1.8342533333333333,-1.7698033333333318,1.4864733333333335,1.5871833333333327,1.4878166666666668,-1.5455566666666667,1.671776666666666,-1.9389933333333331,1.5831533333333327,1.0500666666666667,1.70669,-1.9107966666666654,1.1185499999999995,1.8584300000000005,1.7093766666666668,1.168233333333333,2.0235900000000004,-1.871853333333334,1.098406666666666,2.0303
1.8333333333333333,-1.934573846153847e-05,-3.223135384615388e-05,-1.611355641025627e-05,-1.0023608974358937e-05,-1.2459584615384593e-05,-5.452944358974345e-06,-6.843081025641908e-07,-2.6731051282051002e-05,1.764233086419754,1.87723,1.2159271604938267,-0.38612740740733065,1.0654345679012365,-1.1505284691357958,1.2693859259259275,1.25138740740741,1.3447337037037035,-1.8576767901234543,1.7189738271604953,1.9899739506172809,-1.9911148148148168,1.144163456790123,1.8560372839506183,-1.6929627160493816,1.198867901234568,1.8120237037037035,1.6858980246913595,1.1288892592592588,2.0070792592592586,1.8737454320987663,0.986953,2.019708641975309
1.8666666666666667,-2.3283657692307676e-05,-6.229785897436022e-06,-2.173114166666681e-05,-6.319092115384595e-06,4.267243461538486e-06,1.12759825641024e-06,-8.198748076921836e-07,9.240320371794641e-06,1.8460393827160495,1.7088314814814816,1.5665913580246915,-0.9583557777777784,1.0341020123456797,1.5616695061728398,-0.06893037037038319,0.7335136419753087,1.884784197530864,1.3247870370370363,0.37006411111110926,-1.7231006172839505,-2.024687037037037,1.0122697530864195,1.8203813580246915,-1.6106588888888889,1.201948024691358,1.79273037037037,1.6036428395061728,1.137498024691358,2.016030864197531,1.9642570370370371,0.9961559506172839,1.9665465432098765
1.9,-1.3253517647058927e-05,-1.3806440392157506e-05,-2.0968035294117855e-05,-8.303600784313803e-06,-1.8529223529410734e-06,-7.003593529411829e-06,-6.460549411764732e-06,-1.6702670588235267e-05,-1.8563374074074086,1.3377218518518532,1.9965829629629623,-0.22126148148150193,1.0978088888888895,0.5375648518518557,-1.5971777777777756,0.9802395925925924,1.807551481481481,-1.85603962962963,0.22111340740740726,0.022079629629605524,1.7332451851851849,0.9339878888888894,-2.0465692592592593,-1.5397351851851855,1.162413703703704,1.4557370370370375,1.4326122222222224,1.1683792592592592,-0.07788296296298824,-2.0323896296296295,0.8938535925925931,1.7962074074074073
1.9333333333333333,-0.00010916212820512961,-4.888070512820445e-05,-2.9593096153846078e-05,-5.353960128205154e-06,-3.918631923076962e-06,-1.2093734615384101e-06,-1.0458300641025564e-05,-8.827148461538565e-06,-0.4022422222222277,0.0050727580246913385,-0.02974040888888896,0.9777527901234557,1.7552322222222232,0.7928951975308639,-0.33718753086420383,1.196677160493827,1.83152012345679,-1.336132197530865,0.45749446913580266,-1.3169349382716047,-1.934766913580247,0.583468950617284,-1.9321813580246914,-1.302063950617284,1.1266522222222222,1.4039654320987656,1.3240422222222223,0.9284675679012346,-1.885532962962963,-0.3277909876543277,0.603610950617284,1.7616977777777778
1.9666666666666666,-0.0002490402435897433,-5.7493737179487036e-05,6.084752692307783e-05,-6.21042e-06,-5.222693782051406e-06,-6.4083969230767576e-06,-2.882487435897622e-06,-6.130798846154053e-06,1.1818054320987639,1.0910932098765358,-1.0153499999999944,-1.752146666666664,1.048472617283944,1.6191114814814818,1.7180771604938199,1.6148355555555547,-0.5776492592593603,1.8218727160493857,0.4049274567901213,-1.4374348148148102,-1.934869506172837,0.6447403333333358,-1.7520450617283954,-1.5490379012345643,1.3356822222222227,1.2554171604938273,1.3005239506172859,1.0732877777777774,-1.6832665432098772,1.7200674074074087,0.6433477283950629,1.5387909876543224
2.0,2.2504676923075072e-05,-1.983203076923079e-05,-3.20075538461538e-05,-1.0342092307692396e-05,1.7559592307692968e-06,-4.402813076923253e-06,-1.0058039999999844e-05,-1.5493746153847917e-06,1.1237711111111108,1.3153440740740738,-1.3381714814814805,-0.8668433333333381,1.2359651851851856,1.315491111111111,-1.424408148148148,1.1374991111111117,0.8289514814814865,1.947495185185185,0.417012222222222,-0.6840781481481528,-2.0279148148148147,0.5430854814814815,-1.4475292592592592,-1.7900896296296296,1.28908,1.0512596296296297,1.0602133333333332,0.9718845185185186,-1.510047037037037,1.8344066666666665,0.4071650000000001,1.3475696296296296
2.033333333333333,-0.00011546489102562688,4.592183397435163e-06,-2.8650558333342154e-05,-8.81316141025742e-06,-6.180293076923445e-06,-4.852566538461722e-06,-6.798971410257421e-06,-1.8614034615382778e-06,-1.2967428148148419,0.2065916543209973,0.8704299753086217,-0.8432243827160664,0.11433637037035295,1.1313302469135835,0.7611166666667943,0.08315385185183918,-1.145504691358014,-0.2892474814815823,0.2744273086419881,0.5907298518518392,-1.972019876543222,0.19400858024691042,-0.914692148148137,-1.7902939506172855,1.3492588888888883,0.752859740740742,0.9848149135802466,0.31356741975308955,-1.5545069135802483,1.0919861728396492,0.050976413580248355,1.1407809876543227
2.0666666666666664,4.6806241025641745e-05,-4.220336538461496e-05,-3.424555384615402e-05,-1.5829496153844887e-05,-8.435533589745281e-07,-6.128646923077008e-06,5.401287435895323e-07,-2.763056794871541e-06,1.8102806172839492,1.1742009876544905,1.849922592592632,-1.2351686419752947,1.2676969135802616,1.1248165432100543,-0.9316505185185051,1.3660214814814835,1.7041064197530909,-1.009685111111117,0.5088694938271557,-1.4697087654321088,-1.250585925926112,0.7152116666666705,1.8319183950617308,-1.6446762962962982,1.36050197530864,0.9912809259259237,0.8232814691358064,0.908076629629627,1.7784545679012504,-1.964309382716051,0.8298966296296242,1.0672224691357894
2.1,-0.0003497654807692313,-4.27305865384614e-05,-3.451884807692316e-05,-4.312438269230604e-06,-3.150400961538517e-06,-4.71914730769228e-06,-1.39315e-05,-4.68041269230772e-06,-2.0267199999999996,0.7689728888888916,1.0156002222222233,1.124365555555561,0.6024666666666687,-1.5437677777777772,0.6257423333333311,0.5500978888888869,0.7747921111111115,-1.9215355555555564,1.1597233333333072,-1.171364444444446,0.7761348888888907,0.11771866666666778,1.144512222222223,-1.2420822222222208,0.9359268888888834,1.0706522222222228,0.8732644444444215,0.7112332222222197,1.4000888888888872,-1.5325744444444456,0.7918012222222218,-1.403665555555555
2.1333333333333333,0.0001126096923076919,-6.938198974359045e-05,-2.8848530769230622e-05,-2.3137394871795698e-05,9.941809743590295e-07,-2.5306515384614834e-06,-1.006664974359e-05,-7.914739487179377e-06,1.6422839506172835,1.6187586419753097,1.2003062962962951,1.6718248148148138,0.7165544567901229,-1.7531872839506175,-1.9750969135802496,1.0043596296296289,1.3602491358024695,0.6310634567901235,1.264666172839507,-1.3397559259259255,-1.3485154320987656,0.29805066666666635,1.537595185185185,-1.4378797530864194,0.0,-0.7484339135802467,-1.2266162962962934,0.29456912345678943,0.9150885061728384,1.809543086419769,0.966661999999999,-1.3746197530864208
2.1666666666666665,-2.4748083333333697e-05,-2.9742696794871593e-05,-3.379149807692316e-05,1.7280926282050513e-05,1.6875314743592656e-05,-9.675004551282213e-06,1.0568078205128447e-05,-1.0272198397435695e-05,-0.9871025925925978,0.971834691358026,1.2979854320987665,-1.8295359259258668,0.9741717407407399,-1.9906183950617242,-1.5860377777777712,0.8722685185185212,1.9430740740740708,1.7159423456790073,1.1671359259259246,-1.7963616049382711,1.650695061728394,0.5148372716049373,1.55659283950617,1.9015491358024692,0.7868276790123423,-1.987334444444441,-1.652336172839507,1.042106679012344,1.0958195061728397,-1.2589985185185213,1.5097945679012335,-0.952786419753084
2.2,-2.9050811538461626e-05,-3.438327692307675e-05,-3.513214615384651e-05,-2.147183461538797e-05,-1.1529953846153493e-05,-9.218798461538373e-06,-1.3498961538460876e-05,-7.230431538461626e-06,1.4831881481482934,0.7636018888888941,1.7132540740740734,1.6286574074073983,0.9602471851851886,1.457230740740735,-1.6886403703705204,0.901015000000007,1.7888985185185182,-1.0167896296296266,0.49653574074073803,-1.671481481481639,-2.0025492592592613,0.8347701851851848,1.4208266666666673,-1.74026,1.3635311111111124,1.856489999999996,-1.9385425925925879,1.479911851851851,1.4831940740740717,1.5085544444445937,-1.6474592592594144,-1.624925555555559
2.2333333333333334,-1.3635598717948702e-05,-3.0102037820512924e-05,-3.4471505769230624e-05,-1.3948715384615501e-05,-1.84634e-06,-8.607403846212674e-09,-8.722782564102814e-06,-8.065370064102622e-06,-1.5128775308643077,1.2469577777777772,1.7918823456790116,-1.3170828395062801,1.1766369135802461,1.89945641975309,-1.4573771604938281,1.196083086419754,1.4611086419754207,1.4148574074075149,1.2149833333333362,1.486026296296409,1.8904045679012345,0.9149900123456789,1.3432383950617264,-1.779099876543211,0.6991480370370301,1.4423603703703711,-1.5659454320987656,1.36965,1.4462351851851876,1.537699259259266,-1.5020879012345705,-1.7734293827160508
2.2666666666666666,-1.6479348717948756e-05,-2.8616123076923136e-05,-4.16653846153847e-05,-2.0189248717949142e-05,-3.817491538461568e-06,1.8777630769230782e-05,8.099802820512792e-06,6.929161025640879e-07,-1.7702470370370382,1.1119334567901242,1.7706949382716037,-1.6825682716049404,1.1600248148148138,1.9885313580246922,-1.9725148148148162,1.0481243209876538,1.99002,1.6469591358024702,1.0674185185185179,-1.978777777777778,-1.96988,1.2246797530864202,1.350202592592592,2.050491728395062,0.758529518518521,-1.8270432098765417,-1.521036419753086,1.525261358024692,1.5152691358024677,-1.974755802469136,-2.048105555555556,-1.7070907407407399
2.3,-1.4299478846154326e-05,-2.0784267307692707e-05,-4.0483978846154324e-05,-9.806267115383176e-06,-3.18914e-06,-1.2595155769232528e-05,-1.3447317307693426e-05,-9.354369615384776e-06,-1.8230659259259316,1.1315270370370398,1.8851337037036981,-1.821725555555555,1.1485325925925947,1.917806296296293,-1.8958722222222248,1.153015555555555,1.946754814814815,1.8348529629629626,1.1339129629629625,-1.9847985185185175,0.9775518518516737,1.4930351851851829,1.3145981481481497,-2.04433037037037,1.2971403703703654,-1.8381344444444405,-1.4630488888888875,1.5340711111111123,1.6526851851851805,1.99793074074074,2.0435814814814823,-1.674765185185185
2.3333333333333335,-1.093813333333381e-05,-2.9429549999999807e-05,-3.983624999999981e-05,-2.053360000000382e-05,-3.6087566666669535e-06,-1.1273866666665424e-05,-5.53902e-06,-9.399558333332761e-06,-1.5869340740740754,1.1488359259259269,1.7550338271604922,-1.9407848148148137,1.1119824691358027,2.0041462962962973,-1.5855946913580243,1.1160124691358027,2.0465692592592597,-1.8984585185185168,1.018878271604938,0.7231660493827761,-0.7352560493827762,1.685604567901235,1.2754046913580244,-1.3125072839506164,1.5122353086419755,-1.7772101234567894,-1.4383791358024678,1.553215432098765,1.4810039506172838,1.971916296296297,2.0009588888888894,-1.6715308641975322
2.3666666666666667,-2.409067564102918e-06,-2.429506153846128e-05,-2.577235833333388e-05,1.0247417371796931e-05,-3.1730005769229804e-06,-1.360655961538468e-05,-5.738070641026831e-06,-1.05745e-05,1.8984630864197525,1.0441981481481477,1.6062269135802476,-1.9225824691358029,1.109597283950617,1.8963237037037033,-1.6541214814814815,1.1614674074074076,-1.9844476543209877,-1.921734320987655,1.015747037037037,1.9812658024691356,-1.8843914814814804,1.7131062962962966,1.4043676543209878,-0.981431975308641,1.4225160493827156,-1.2745588888888901,-1.141276790123458,0.8494415802469126,1.7608492592592597,-0.3600670370370662,1.1745939506172822,1.4960219753086406
2.4,-1.4783661538461627e-05,-2.583583846153837e-05,-3.975447692307732e-05,-2.7488515384615693e-05,-1.717226692307957e-06,-6.391186153846815e-06,-1.24079384615378e-05,-7.243343076923253e-06,-1.8512611111111141,0.9166805555555565,-1.9492888888888913,2.056261111111111,0.9735252222222229,1.6171711111111113,-1.7304144444444454,1.0702066666666663,-1.8570855555555565,1.7966566666666688,0.9148898888888897,1.8893111111111123,-1.7760700000000034,1.546004444444445,1.8875177777777765,1.0402161111111201,0.4525216666666554,1.8333622222222208,1.7975522222222249,1.1176555555555545,1.620304444444443,-1.1816615555555328,0.0,-0.840589222222223
2.433333333333333,-2.0520414379084682e-05,-3.44091e-05,-4.275986993463556e-05,2.406605032679958e-05,-8.94427895425104e-06,-3.0245769934629057e-06,-4.949909411765279e-06,-9.31728058823472e-06,1.9502820987654357,0.6734854938271654,-1.8631996296296303,1.80878975308642,0.9847654320987643,1.2533720987654358,-1.4485780246913607,1.1118846913580251,-1.6257285185185204,1.4523045679012352,0.7676302962962978,1.6419380246913606,1.3698995061728279,0.6521998271605045,1.9055741975308653,-1.2488497530864202,-1.7929325925926078,0.009946617283949799,-1.8945833333333415,0.938961925925915,1.7720871604938244,1.2893286419753103,0.5431851604938361,0.1009597530865669
2.466666666666667,-1.8200865384615535e-05,-3.092083269230777e-05,-2.820510576923009e-05,-1.3879821153857462e-07,1.7602648076935133e-06,-1.66171e-05,9.019745576922813e-06,3.5721592948687805e-07,0.299197283950563,0.5093164938271605,-1.872999629629629,0.21320716049377175,1.0265875308641972,1.3203162962962969,-1.5233724691358028,1.0628475308641971,-1.5197945679012344,1.9415291358024709,0.7307781728395059,1.5042261728395059,-1.5892725925925917,1.040912197530866,-0.4843511604938286,-1.8142619753086342,0.45461034567901004,1.780399135802471,1.2965927160493829,1.4124703703703692,1.9761434567901208,-1.9057217283950583,0.43959090123456984,-1.3410535802469121
2.5,-1.4409226923076626e-05,-2.6042473076923375e-05,-3.588743076923072e-05,-7.75979653846134e-06,-1.8644192307694393e-05,-6.132950769231166e-06,2.4447888461539404e-05,-5.648769999999653e-06,2.002251481481481,0.520855,-1.6852044444444443,-1.8752833333333334,1.0909462962962964,1.2496966666666665,-1.5134770370370367,0.933988,-1.3556233333333334,-1.9707718518518518,0.5229438518518517,1.3542837037037037,-1.2225366666666666,1.4554396296296304,-0.44401692592592623,-1.5203425925925937,1.5002003703703701,0.931003925925926,-1.2246285185185182,1.070801111111111,1.992257777777778,-0.6479759259259168,0.1527801851851848,-0.9921742222222224
2.533333333333333,-2.1319051923076936e-05,-3.1385648076923064e-05,-3.3404151923076936e-05,-9.23171e-06,1.2878133782051005e-05,-2.845908269230724e-06,1.105540525641012e-05,-1.4262896153846128e-05,0.7696725925926284,0.32525430864197635,-1.3989966666666676,-0.7228749382716406,1.1880714814814815,0.9218033333333341,-1.0665777777777778,0.7690233950617292,-1.1930001234567904,1.5990687654321007,0.19147239506172867,1.086717777777778,-1.453401728395058,1.4971148765432176,0.7445043703703715,0.6361323456790446,0.12358651851851903,0.903053790123459,0.7573848765432181,0.0,-0.8244254074074118,0.8393954320987689,0.785882333333333,1.3565729012345742
2.5666666666666664,-0.000165331,-3.2390635897436155e-05,-3.303187948717954e-05,-1.1882858974359026e-05,-2.6507238461537228e-05,-3.920785897436309e-06,-4.863326153846411e-06,-1.9225230769231388e-05,-1.443152962962951,0.33082464197529066,-0.9702420246913271,1.9899702469135796,1.1906062962962989,0.8244758024691319,-1.700676666666663,0.3983619012345626,-1.2853538271604854,1.191999629629625,0.12502907777776762,1.3355322222222117,-1.4837883950617563,-0.09767639506164477,-1.1788743827160204,1.9321267901234747,0.8103017037036988,1.2073188888888748,1.028334691358169,1.2562055555555598,1.5397853086419746,1.579424197530844,0.3718043086419537,-1.605284320987678
2.6,-0.0001337661153846149,-3.326642884615378e-05,-3.299853461538458e-05,-8.22461e-06,-4.19300211538445e-06,-2.31115538461512e-06,7.359568846152522e-07,4.6093951923082215e-06,1.0743877777777033,0.4135804444444333,0.691091111111109,1.9219859259259264,0.9920244444444417,1.2587911111111143,-0.12816211111110862,0.9265279629629606,1.1219766666666708,0.7128740740740731,1.108702592592596,-1.8209755555555565,-1.6414918518518573,0.7880708888888959,0.6467788518518569,-1.1033274074073234,0.39328914814814797,-1.4964733333333293,-0.3552434037036942,0.6290242962962906,1.2543174074074028,-0.09354793925926987,0.6409602962963159,-0.38403896296299556
2.6333333333333333,7.660812435901037e-07,-2.7789834615384977e-05,-2.7116262820513307e-05,-7.822204358974334e-06,9.098290769230718e-06,-5.03548e-07,-5.947889358973999e-06,-1.1792474230766658e-06,-1.0546928395061226,0.4422763827160478,1.0981554320987663,-0.9710924691357953,0.0,-1.3241424691357948,0.21479771604938,0.021037062962964023,0.83322864197531,-1.072194074074063,1.404809012345675,-1.820980246913574,1.3442348148148122,1.6159767901234512,0.5220487777777838,-0.2762672469135915,1.0587162962962986,-1.4965228395061778,-1.4677232098764872,0.6694569012345704,1.1900155555555545,-2.042088888888887,-1.54709419753081,-1.413466296296239
2.6666666666666665,-9.163924423077092e-06,-1.6549274358974528e-05,-3.198715064102693e-05,-1.2320745512820345e-05,-1.7223942307691634e-05,7.725367820511699e-07,-5.739148846154183e-06,-6.206114166667788e-06,-1.488364320987653,0.6474755925925935,1.4328567901234566,-0.7346076543209907,0.894499135802472,-1.3024151851851875,-1.7806401234567606,0.8062233086419773,1.0930359259259252,-1.089900246913583,0.7539542716049393,-0.12681902469135872,1.0771649999999993,0.601820691358024,1.6445214814814797,-1.3049948148148167,0.8474026172839513,-1.7744764197530583,0.6176849629629646,1.3050444444444436,1.4524086419753117,-1.592153456790124,0.36882087654321255,-1.7369762962962962
2.7,-2.16526e-05,-5.01869e-05,-4.17945e-05,-1.15816e-05,-9.90311e-06,1.51064e-06,1.67849e-07,-1.15816e-05,1.69595,0.793591,1.39382,1.80874,1.35354,1.80069,-1.86917,1.63552,1.37368,1.96988,1.57913,-1.25686,-1.77652,0.886244,1.78457,-1.51064,1.17629,1.24477,-1.845,0.660655,1.71206,-1.79666,0.982925,1.90945
2.7333333333333334,-5.87687391025585e-06,-4.205486282051495e-05,-2.947582628205089e-05,-9.198355192307636e-06,-6.627893012816702e-06,-9.634119615384727e-06,-3.422621666667059e-06,1.5220505897432422e-05,-1.9481964197530868,0.9803891604938273,1.3273804938271603,-1.7667167901234282,0.6340969629629641,1.6039946913580252,1.5321277777777793,1.4179390123456797,1.3117070370370374,-1.200059012345683,-1.4569771604938297,-2.0051429629629602,-1.9396904938271604,1.1355030864197528,1.987730740740741,-1.2277601234567914,1.419182222222223,1.6659146913580232,1.530882098765405,1.053989629629629,-1.9781881481481483,-1.7892486419752789,1.0501667901234566,1.7020690123456497
2.7666666666666666,-2.718942820512805e-05,1.8069617948718602e-05,-5.704723076923164e-05,-4.934339615384584e-06,-1.1144729487179456e-05,-8.629171538461663e-06,-7.6113179487172935e-06,-3.0471091025635405e-06,1.9410804938271613,1.1592781481481471,1.4058577777777783,-0.8988757654320984,0.6959154814814765,-1.3659161728394513,1.3913845679012338,1.4945809876543203,1.3637330864197519,-1.4343534567901162,-1.2826627160493769,1.7758233333333302,-1.8624571604938287,1.16017,1.9382495061728386,-1.7052002469135785,1.2074229629629638,1.7714439506172843,1.5260123456790098,1.1993629629629636,1.842958888888889,-1.9521754320987663,1.011171604938271,1.5441660493826563
2.8,-1.2992165384615417e-05,-3.266604230769244e-05,-4.065503653846164e-05,-9.096138846153781e-06,2.55324673076933e-06,-1.51064e-06,1.91412557692311e-06,3.679772499999338e-06,1.9524229629629641,1.5181066666666645,1.4308237037037002,-1.5348174074074037,1.5164603703703663,-1.517360370370368,1.4990059259259267,1.7204203703703698,1.4015796296296303,-1.6043400000000068,1.7908396296296336,-1.9936040740740733,-2.046264444444443,1.0998948148148127,1.2559581481480087,1.2538748148146768,1.3310055555555536,1.823514814814816,1.7348929629629641,1.2302955555555535,1.8884188888888909,-1.8860262962962966,1.15450185185185,1.9427248148148142
2.8333333333333335,-2.554317692307713e-05,-3.9315484615384306e-05,-2.5142958974359026e-05,-1.7086169230771288e-06,-3.180524358974874e-06,-8.89601e-06,-1.7602671794883113e-06,-8.276251794870714e-06,1.8519107407407398,1.7031093827160502,1.24277987654321,-1.9086588888888902,1.8337086419753073,-1.7248466666666646,1.5337727160493826,1.5357106172839499,1.4702580246913572,-1.4988061728395077,1.5764432098765453,-1.9670414814814827,1.516165308641972,1.0432058024691346,1.5520692592592602,-1.7651266666666645,1.0825927160493825,1.8863770370370376,1.6871435802469152,1.1459481481481473,2.004142345679013,-2.041591358024693,1.0290237037037022,-1.9758479012345675
2.8666666666666667,-1.49386e-05,-3.770154230769186e-05,-2.8377259615384688e-05,5.509969230769032e-06,3.303182179486812e-07,-6.88182e-06,-1.058310769230775e-05,-3.875593397436e-06,1.7690601234567904,1.8800092592592594,1.314148641975309,-0.6634407407407759,1.0434471604938262,-1.3489635802469158,1.3538820987654316,1.1550538271604924,1.4433066666666676,1.8483761728395034,-1.8707590123456788,-0.7511185185185536,-0.8016009876543564,1.160126419753087,1.8307775308641971,-1.731653580246916,1.1726051851851849,1.9270587654320994,1.8051156790123448,1.0817424691358029,2.003350740740741,1.8201862962962965,1.0244008641975313,-2.0358218518518525
2.9,-4.4738280769235395e-06,-2.1174853846150008e-05,-3.069702307692036e-05,-8.83145230769244e-06,-1.484819846152523e-06,-7.21752e-06,-1.681077307692612e-05,-2.059377307692731e-05,1.976743333333333,1.7208651851851853,1.5915096296296294,-1.382184074074074,1.0220159259259258,1.772337037037037,-1.8423111111111115,0.749279,1.7436892592592592,0.8808715925925934,0.05967962962963001,-1.8994533333333332,-1.9762929629629629,1.1095937037037038,1.8054637037037036,-1.7656229629629632,1.1533114814814815,1.8032225925925929,1.5886725925925926,1.1258566666666667,1.9507848148148148,-1.9785322222222226,0.9641257777777779,2.0121003703703706
2.933333333333333,-1.2910382051282541e-05,-1.7275588461539818e-05,-4.547958782051263e-05,-5.342122948718062e-06,-3.999329038461651e-06,-2.4445746153844646e-06,-2.2401419230766972e-06,-8.136387243589217e-06,-1.6497477777777794,1.1847902469135843,1.9598825925925918,1.759259259259266,1.3352822222222207,0.4972809629629699,0.35359987654315717,0.983174320987653,1.8817020987654316,-1.081993827160494,0.24528374074074125,-0.28516987654315473,1.691473580246914,0.8703290740740749,-0.23608222222216613,-1.594692716049383,1.1728072839506172,1.4716549382716055,1.4820987654320996,1.1808616049382714,-0.27214185185179485,-1.9501820987654317,0.9271743333333337,1.778356543209877
2.966666666666667,-0.0005984092222222309,-6.390337647058897e-06,-1.842944117647082e-05,-1.0394567254901887e-05,-9.091286470588257e-06,-4.86763e-06,2.4749547058823842e-06,1.3547529411764411e-05,-0.18386580246911,0.0,-0.07365485901234466,1.5158677777777816,1.5558965432098728,0.6664236543209897,1.8988577777777773,1.36362987654321,-0.07121641975311621,-1.3719343209876522,0.3577799999999991,-1.6260766666666673,-1.8906535802469129,0.6282782962962961,-1.9174104938271603,-1.286647283950617,1.1644983950617287,1.3976958024691357,1.23870012345679,0.996902135802469,-1.8607618518518514,1.9596856790123456,0.5780481358024692,1.705796172839506
3.0,-0.0003183974615384606,-3.957367692307695e-05,-3.885066923077034e-05,-1.3053515384615693e-05,-2.0658361538462197e-06,1.5622861538462201e-06,-9.03802307692749e-08,2.001281692308177e-06,1.4063522222222222,1.2635677777777778,-1.0769222222222221,1.8427622222222222,1.0527505555555554,1.4466377777777777,-1.9748022222222221,1.6149322222222222,-2.031648888888889,1.79979,0.44580755555555557,-1.7765133333333334,-1.9622688888888888,0.6552834444444444,-1.782778888888889,-1.5361533333333333,1.327131111111111,1.2291022222222223,1.2886355555555555,1.076918888888889,-1.7308655555555557,1.7433944444444445,0.6337987777777778,1.533471111111111
3.033333333333333,3.3203982692293723e-06,6.3728901923076555e-06,-6.033321730769282e-05,-9.269369935897694e-06,5.917758461538756e-06,-5.53902e-06,-5.517501089743443e-06,-2.291998589743538e-05,1.39785,0.9517920864197525,-1.212791111111111,-1.9842998765432105,1.3697975308641992,1.3674643209876507,-1.6517371604938276,1.1731546913580257,1.9272095061728398,-1.8153550617283931,0.5341831975308629,-0.2120597530864463,2.049846790123457,0.4667950370370375,-1.4541932098765442,-1.7801007407407403,1.29714,1.03693950617284,1.0759220987654323,0.983370407407408,-1.53481,1.784124567901234,0.45008429629629687,1.3334971604938275
3.0666666666666664,-0.000411565999999996,-5.0047033333332666e-05,3.30383666666616e-05,-4.056354999999331e-06,-6.602069999999809e-06,-2.85344e-06,-8.112711666667049e-06,-4.252181666667623e-06,0.8847993827161018,0.6663735777777908,0.8350183333333235,-0.803637111111115,0.23135849999999095,1.218562222222226,1.5908149382715966,0.0,-1.1468472839506143,-0.7181467901234502,0.3856803703703787,0.523590283950614,0.8190558024691883,0.21529467901234303,-0.8024942592592539,-1.7410059259259267,1.3772590123456785,0.7339113209876552,1.0780146913580244,0.3163024567901259,-1.4854781481481485,-2.003897160493829,0.040433032098765614,1.119047407407408
3.1,6.160715576923167e-05,-8.182973461538478e-05,-4.271121923076919e-05,-1.636206538461522e-05,-3.3892549999987873e-07,-4.441549230769187e-06,3.950910769230813e-06,-1.25887e-05,1.9121388888888886,0.3809055555555708,-0.9417477777777921,-1.3020618518518503,1.1348114444444461,1.5745040740740723,-0.8522255555555539,1.3339922222222225,1.6965422222222224,-1.7331022222222243,0.4107457407407398,-1.629852592592595,-0.6563274074074251,0.7218265555555562,1.826793703703705,-1.5528703703703703,1.3971011111111111,0.9756129629629625,0.8631177037037042,0.9277209999999999,1.7301137037037049,-1.969131111111111,0.7998578888888882,0.984268148148147
3.1333333333333333,-0.00022397566666666633,-6.834046666666653e-05,-3.7460505128205164e-05,-9.429685641025391e-06,-2.633943846153824e-06,-5.1000320512820075e-06,-1.3638838461538432e-05,-4.3726876923077435e-06,-1.8402754320987662,0.6092803086419712,1.0926392592592602,1.1773313580246823,0.5441301234567868,-1.5590834567901242,0.8171645555555622,0.45908587654321414,0.9274233209876549,1.894237530864198,1.5794767901234485,-1.337474074074069,0.2677628271604904,0.05291606790123286,1.2589397530864177,-1.3635819753086444,1.0335047160493922,1.103728271604938,1.0899508641975142,0.7412722098765488,1.4428582716049427,-1.6983841975308591,0.6866651728395077,-1.4313176543209905
3.1666666666666665,1.5615367948719557e-05,-2.910676153845851e-05,-3.717432115384634e-05,-3.59800038461512e-05,3.443064038457753e-07,-5.659526346163311e-07,-2.0323725641026872e-05,-3.396790576923172e-06,1.726283950617281,1.7828281481481527,1.2075719753086407,1.3580114814815847,0.9420939876543211,-1.9044258024691407,1.5572898765433072,0.9841185185185143,1.3323506172839532,1.4820944444444453,1.3835246913580317,-1.3382214814814846,-1.3995918518518473,0.33157102469135613,1.4811012345678982,-1.624087283950613,0.0,-0.7250088518518469,-1.407199629629612,0.3154075185185142,1.0118699999999916,1.4722492592593701,1.0308154320987615,-1.5262579012345705
3.2,-1.64492e-05,-2.1381453846152853e-05,-2.1123223076920896e-05,1.1452484615381439e-05,-2.014195000000258e-05,-1.67849e-07,5.551938461530522e-07,5.616494230786107e-07,-1.0340997037037003,1.003364888888883,1.3511466666666716,-1.479613333333334,0.8850506296296263,-1.9078137037037075,-1.447528148148153,1.0745366666666647,1.771145185185186,1.8124685185185214,1.139135185185185,-1.681928148148149,1.5850944444443416,0.5216009259259281,1.5119818518518537,1.9454085185185215,0.8884823703703726,-1.7395151851850756,-1.576441111111113,1.0248466666666716,0.9612914814814868,-1.412169629629629,1.5582422222222234,-0.8438716666666718
3.2333333333333334,-2.26596e-05,-5.264439615384632e-05,-2.917889294871791e-05,-1.6584771153847368e-05,-1.51064e-06,-9.32639301282116e-06,4.766489615384211e-06,-2.376789038461579e-06,1.660636543209873,0.7999077160493854,1.7007259259259269,1.724846172839507,1.0802067901234575,1.5304914814814812,1.9692825925925346,0.8235306543209897,1.8819462962962972,-1.4489269135802454,0.5646692716049391,1.995891111111051,-2.0204596296296278,0.7298332592592601,1.4626979012345682,-1.7202691358024693,1.328375308641974,1.8151587654320969,-1.8872709876543186,1.3735804938271603,1.501147654320986,1.891201481481479,1.969382098765374,-1.3501565432098772
3.2666666666666666,-1.944903076923062e-05,-3.60101307692311e-05,-3.984053589743588e-05,-8.336513589744068e-06,-6.318016153846172e-06,-5.633708205128279e-06,-1.7193815384615312e-05,-3.7658453846153113e-06,2.0123545679012356,1.2268181481481482,1.780938024691358,-1.8255570370370537,1.2032964197530867,1.9495922222222226,-1.553317160493827,1.1507274074074076,-2.0615354320987658,1.814956172839522,1.240393703703704,-2.0339324691358027,1.9866382716049384,0.9231461234567904,1.3183711111111105,-1.790242839506173,0.5761581975308635,1.542125679012346,-1.4649374074074075,1.3499075308641975,1.4929896296296299,1.6116002469135806,-1.4576317283950615,-1.7024601234567904
3.3,-1.561e-05,-3.545493461538431e-05,-3.933485192307646e-05,1.8883055961528426e-06,5.03548e-07,2.6445936538461462e-05,1.2265915961535683e-05,-7.65005096153769e-06,-1.7912888888888885,1.091691111111111,1.85664,-1.5509233333333328,1.2496955555555556,1.8029199999999999,-1.9103488888888884,1.1082566666666667,1.5921077777777484,1.584943333333333,1.103777777777778,-1.5921077777777484,-1.8902022222222228,1.2617811111111101,1.355774444444445,-1.9457088888888892,0.726898888888888,-1.8651444444444452,-1.4443977777777781,1.5316788888888884,1.5263088888888894,-1.8821455555555557,-1.9099022222222215,-1.91437888888889
3.3333333333333335,-2.9677033333333714e-05,-3.524404615384598e-05,-3.8609653846154014e-05,-1.642342935897664e-05,-1.0027906923075234e-06,-3.516227307692299e-05,-3.060021923078445e-06,8.607641025649483e-08,-1.82834098765432,1.1472970370370328,1.8168964197530908,-1.7945703703703708,1.0937796296296292,1.9261090123456799,-1.8377840740740727,1.0944761728395054,2.0362720987654326,-2.0325454320987637,1.07209901234568,-1.9786348148148147,1.3540292592594503,1.4772708641975345,1.3007685185185165,-1.9933534567901237,1.360303333333338,-1.8842883950617308,-1.50715901234568,1.6121940740740728,1.708683703703709,-2.016826913580247,-2.0284643209876583,-1.6692906172839492
3.3666666666666667,-1.7273436538461448e-05,-3.6804190384615654e-05,-4.0131063461538554e-05,-8.529109358971163e-06,-3.181608269230724e-06,-2.7464844230769863e-05,-2.4292909615384344e-05,-2.302547243590464e-06,-1.8561914814814804,1.14366135802469,1.687296543209879,2.049504691358025,1.0712988888888892,1.9199004938271602,-1.8300764197530863,1.050713456790123,2.0445293827160493,-1.0818412345678423,1.028677530864197,1.0913464197530267,-1.894184074074076,1.7668672839506159,1.3077848148148152,-1.2394991358024703,1.5839009876543202,-1.8782220987654312,-1.3705485185185196,1.4795596296296303,1.6205496296296305,1.8390325925925934,1.7551835802469138,-1.5936004938271602
3.4,-8.624867692307793e-06,-3.0006307692307746e-05,-5.622950769230726e-05,-4.4041092307693696e-05,-5.53902e-06,-3.693974615384695e-05,-1.3285923076923232e-05,-7.55322e-06,0.8247711111110219,1.13301888888889,1.590168148148147,-2.0253833333333318,1.112728518518518,1.9213877777777788,-1.631795555555556,1.1452540740740742,-0.8458096296295396,-2.0314959259259235,1.0396225925925933,-2.0492559259259258,-1.8636466666666707,1.7242951851851842,1.4794588888888898,-0.6343952222222274,1.5971774074074079,-1.457084444444437,-1.3056425925925899,0.920708962962964,1.7615959259259235,1.7738311111111078,1.096169259259266,1.51019740740741
3.433333333333333,-8.188025576914687e-07,-2.7220618589742902e-05,-4.114246730769185e-05,-5.2164517307695816e-05,-1.15816e-05,-2.3431082051283655e-05,2.0443169230775333e-06,-3.1794498717951007e-06,-1.9559014814814855,0.9812360987654333,-1.998971975308643,2.008176296296297,0.9797932592592603,1.6376088888888916,-1.6381597530864214,1.11183,-1.8859260493827186,1.7181788888888914,0.901810061728396,1.8772725925925944,-1.7916854320987627,1.5386466666666696,1.848036419753082,1.1849887407407622,0.04038339506173169,1.5401876543209845,1.6692944444444477,1.0099820987654324,1.6598933333333303,-1.4518627160493702,0.0,-1.0214189135802447
3.466666666666667,-1.3068556410256822e-05,-3.3436430769231005e-05,-3.6655707692306985e-05,-2.31632e-05,-9.210180384609503e-07,-5.2635803846135025e-06,1.5493743589849438e-07,-6.998023846153493e-06,-1.8830437037037038,0.53294,-1.80069,1.7809438271604938,1.0054083950617285,1.288584074074074,-1.244517037037037,1.1421254320987655,-1.6373624691358024,1.4754306172839504,0.7538545308641974,1.6140864197530864,1.533522222222222,0.6134582469135799,2.051737777777778,-1.9136796296296295,-1.8682227160493823,0.04674910123456803,-0.10742209876543862,0.9475139259259262,1.719473209876543,1.7403575308641972,0.47624444444444397,-1.5724119753086412
3.5,-1.8466741176470613e-05,-2.840929803921569e-05,-3.490277647058817e-05,-1.2756555098038923e-05,-2.0536841176470415e-06,-8.817021764705917e-06,-7.470901176470015e-07,-6.615200392156173e-07,-1.8446974074074087,0.6367828888888888,-1.9160170370370366,-1.9930055555555561,0.9223502962962964,1.429925925925926,-1.4927388888888886,1.0612562962962964,-1.5850903703703705,-0.1117507407407019,0.7289878148148149,1.5606270370370372,-1.717581851851851,1.1742003703703705,-0.49086559259259077,-1.5947907407407453,0.9134003703703772,1.4790159259259246,1.4955718518518546,1.2732692592592603,1.7742770370370382,-1.9063211111111118,0.3479329999999992,-1.3653214814814818
3.533333333333333,-1.1210396794871584e-05,-2.3846432051282123e-05,-2.609945256410306e-05,-2.3714085256421575e-06,-3.253692692307777e-05,-8.84866769230741e-06,-5.82307314102734e-06,-2.0636847948710873e-06,-0.196147037037121,0.5415436666666675,-1.7406082716049383,-1.9149725925925924,1.0478286419753078,1.3094724691358035,-1.5183517283950616,0.9089222345679014,-1.4226161728395075,-2.014390740740739,0.5081730000000013,1.502837901234569,-1.4182856790123428,1.5412776543209818,-0.9207584938271527,-1.258992592592583,1.5290440740740732,1.124864444444446,-1.6046398765432144,1.1922996296296307,1.7796009876543195,-1.8200817283950583,0.5315969259259239,-1.0726420493827127
3.5666666666666664,-2.4165946153847273e-05,-3.2524015384614544e-05,-3.0397958974359954e-05,-9.817033076923637e-06,-1.105648717948732e-05,-8.172971282048348e-06,-2.581432564102913e-05,-4.704082564101447e-06,1.8512649382716038,0.4472496666666673,-1.4554896296296325,-0.4285502469137126,1.1938886419753079,0.9704947654321019,-1.5293948148148162,0.8544146666666693,-1.231191358024692,1.6881903703703722,0.3538513456790134,1.1241169135802482,-1.711363703703699,1.6147324691358143,0.6197243456790134,1.904630246913575,0.5403004814814953,1.4180934567901242,-0.38831493827172125,0.36598619012347405,-1.553314567901261,1.5342159259259431,0.9785970617283826,-0.4747520987655445
3.6,-0.0001414324423076948,-3.16008403846158e-05,-3.575835576923052e-05,-8.776578269231059e-06,-3.6610517307693715e-05,1.5054803846153681e-05,-8.676513846153681e-06,-1.1142607692307361e-05,-1.4059033333333348,0.08862433333333918,-0.6378260000000131,1.9792766666666677,1.2246266666666659,0.7358506666666669,-1.3978466666666693,0.16382100000000388,-0.9856113333333345,1.1507766666666666,0.008056766666667197,1.089006666666668,1.2071706666666864,0.0,-0.8943033333333227,1.7456333333333247,0.8244756666666703,0.9251846666666689,1.103776666666677,1.0178380000000125,1.806056666666658,0.7116800000000107,0.0,0.23767666666659326
3.6333333333333333,-8.987246538461474e-05,-2.80308e-05,-3.446287179487159e-05,-1.0133361025640878e-05,7.273470512819749e-06,-1.5928484615384498e-05,1.1211457179489237e-06,-1.3600101282052458e-06,0.5825254320987907,0.8360138395061772,1.051806320987657,1.8270464197530862,1.194240864197531,1.14983049382716,-0.3630022074074103,0.9883964814814813,1.2883337037037037,0.7723056419753107,1.0349449629629608,-2.023790493827161,-1.3434364197530875,0.33868258024691555,1.0501625925925917,-1.943272962962964,0.644640283950618,-1.981321358024692,-1.6137896296296312,1.1390358024691365,1.67581,-0.7014358765432132,0.5069792716049392,-0.08718202987654097
3.6666666666666665,5.435733205127499e-06,-2.999874743589741e-05,-4.937562500000076e-05,-3.9186346794870035e-06,9.210185897430016e-07,7.55322e-06,-1.4580291025640586e-05,-2.795335320512997e-06,-1.452752839506163,0.44242569135802334,0.9898888641975301,-1.4759807283950737,0.0,1.2628267901235097,0.9033497777777907,0.0732071506172853,0.8005540246913573,-1.136548851851864,1.4608607407407463,1.1548056790124015,1.6915240740740747,1.8359433333333348,0.8045820246913573,-0.5782962098765458,0.9835210864197474,-1.8658837037037015,-0.9910806913580175,0.3130697654320969,1.4163953086419727,1.7432472839506177,1.9400365432098776,-1.6927658024691359
3.6999999999999997,-3.0987523077020105e-07,-1.7249761538461273e-05,-4.3085653846153495e-05,-9.928932307692485e-06,-1.2988907692306987e-05,-1.1620307692272411e-07,-1.7817830769226358e-06,-9.877286923076747e-06,1.446787037037111,0.3589737407407389,1.5662925925925957,-0.24916322222221754,0.5863532222222154,-1.235667777777775,1.2077659259260076,0.5174234814814764,1.1797188888888914,-0.5183184814814752,0.42700848148147913,-0.21335531555556095,1.9606292592592642,1.0585652592592631,1.553911111111113,-1.2801288888888902,1.049471111111112,-1.7092240740740738,1.0833376296296358,1.2317914814814805,1.2195537037037032,-1.352345925925926,0.5080232592592597,-1.954067407407411
3.7333333333333334,-2.56809e-05,-3.5182710256410234e-05,-1.6509491666666507e-05,-1.0484119230769185e-05,-1.7268050641025642e-05,2.4768534615384686e-06,-2.18204e-06,6.300801987179531e-06,1.7402088888888803,0.8669968518518505,1.3738798765432083,1.8735914814814782,1.5187523456790089,1.924672716049384,-1.9574949382716016,1.6078249382716068,1.288836049382721,-1.6506440740739272,1.5571962962962989,-1.2119477777777827,1.3837232098765508,0.4373030617284096,1.8472895061728387,-1.7447858024691376,0.8741090493827195,1.7289720987654256,1.7656734567901342,0.8310899506172829,1.8895630864197481,-1.6434324691358007,1.0081875925925896,-1.9817692592592608
3.7666666666666666,-5.982316153846029e-06,-1.7032405128205816e-05,-3.4871729487179923e-05,-9.466269615384928e-06,-4.385596025640026e-06,-2.638247692307942e-06,-6.754856538461101e-06,-3.6388819230769857e-06,-1.9853932098765439,1.0388227160493835,1.3215090123456787,1.9272116049384116,0.9711877530864249,1.9227848148148188,1.6704386419753163,1.509645432098767,1.2517356790123473,-1.7376770370370522,-1.9284991358024821,-1.6182132098765336,-1.9382467901234561,1.1511251851851867,1.9048232098765439,-1.3180758024691346,1.6217491358024716,1.3629313580246838,-1.8376350617285306,0.9438346049382699,1.8560439506172797,2.0123996296296323,1.0913917283950623,-1.9529151851853286
3.8,-1.3247188461538671e-05,-1.1759114807693512e-05,-2.9412334615383987e-05,-5.377630576922973e-06,-1.3757194230769335e-05,1.5493801923097873e-07,-3.376352115384301e-06,-1.3114819230767502e-05,1.8960255555555587,1.1692759259259224,1.3651725925925922,-1.0605111111111218,0.294072,1.8655907407407317,1.2719255555555542,1.4936348148148137,1.3265351851851819,-1.2675969259258957,-0.924289851851835,1.7519022222222218,-2.01419,1.1756929629629622,1.7308574074074057,-1.5187014814814765,1.1913540740740776,1.9955433333333303,1.3900899999999956,1.2901244444444457,1.8776774074074079,2.0156837037037008,1.0520066666666674,-1.9759985185185212
3.8333333333333335,-1.4843915384615393e-05,-3.5678684615384606e-05,-5.77788846153847e-05,-1.2158315384615392e-05,6.313715128205172e-06,1.656970769230784e-06,-4.60079153846152e-06,-8.89601e-06,1.9916628395061733,1.5332696296296304,1.349908024691358,-1.521283086419755,1.2445679012345703,-1.5686828395061732,1.4490259259259262,1.7214155555555566,1.4409151851851847,1.8720576543209884,-1.8704655555555565,-1.8993591358024688,-1.96988,1.1714132098765428,1.78457,-1.9656479012345702,1.0945259259259261,1.952575925925926,2.008568888888889,0.9897378888888885,1.9465567901234573,-1.911042098765432,1.051808024691358,2.02225
3.8666666666666667,-1.1329824999999713e-05,-3.91089e-05,-3.9346683333332524e-05,-1.6673050833335433e-05,-5.483070833333525e-06,-2.741540000000382e-06,-1.0798300833333715e-05,-2.2267958333333526e-05,1.8898059259259261,1.6981904938271604,1.269435925925926,-1.7901937037037035,1.9560020987654319,-1.9326814814814817,1.5315776543209876,1.6669523456790125,1.5000028395061729,-1.619905925925926,1.6845601234567904,-1.931832098765432,1.7226080246913584,1.01112,1.7878023456790124,2.0223475308641974,1.164695925925926,1.8014776543209876,1.6360159259259262,1.1811076543209875,1.9202464197530864,-1.8678246913580243,1.1352123456790124,1.9811723456790125
3.9,-8.243977307692297e-06,-3.291136153846163e-05,-3.671376538461608e-05,-1.4945012692308166e-05,-3.2407838461536255e-06,-3.7572365384614064e-06,-6.10067192307689e-06,-1.6249081538462607e-05,1.8732,1.85306,1.2577477777777772,-2.0061333333333344,1.2416377777777805,-0.7604691111111126,1.4394711111111114,1.3678600000000014,1.3660699999999997,-1.8655922222222214,1.6726777777777773,2.009264444444441,-1.096616666666609,1.2138855555555554,1.8002377777777785,-1.7729333333333341,1.1579333333333328,1.8154588888888885,1.6592422222222225,1.1968755555555557,2.0410488888888887,1.7971088888888904,0.9932195555555554,1.117655555555496
3.933333333333333,-8.22461e-06,-3.144053782051275e-05,-2.3916323076923636e-05,-8.718476346153637e-06,7.428405320512541e-06,-3.2752137820507235e-06,3.0449580128198146e-06,-6.142638141024175e-06,1.9704770370370368,1.7269304938271617,1.5061707407407388,-1.2822695061728382,0.9261296172839479,1.4908014814814856,-0.9154849382715049,0.6096785061728445,1.9745070370370368,1.815999753086423,0.5402994567901416,-1.69321209876543,0.8680929629628578,0.9984429629629633,1.854896543209875,-1.6866504938271618,1.2222887654320993,1.7821335802469156,1.5601243209876545,1.1647472839506177,-0.8877339506171773,1.826696543209875,1.009385802469136,1.946254444444445
3.966666666666667,-1.0647641025640951e-05,9.593212051282801e-06,-1.8476361538461628e-05,-7.884611282051252e-06,-9.477029230769187e-06,-8.220292307691131e-07,-5.728394102564249e-06,7.746876923072517e-07,-1.8120727160493781,1.2563085185185137,2.0123525925925936,-1.9613270370370444,1.0910462962962948,1.1741460493827087,-1.6479100000000086,1.074535555555558,1.7782551851851873,-1.686646172839506,0.6724412222222322,0.7481345679013425,1.8581780246913586,0.8560058641975293,-2.026575061728394,-1.5833058024691353,1.11183,1.4219664197530835,1.4576262962962947,1.1519707407407411,-1.9982258024691355,-1.9641618518518527,0.8544645925925916,1.7436428395061714
4.0,-8.7326769230775e-05,-2.98190480769201e-05,-3.39055e-05,-1.05745e-05,-6.71074211538531e-06,-6.6461844230760304e-06,-1.7107702307674445e-06,-8.263342307720094e-07,0.5127988888889512,0.0,-0.5981390399999751,1.3835240740740793,0.1594951851852482,0.5772519629629658,0.3831459259259953,1.2146314814814805,1.867828518518518,-1.6517892592592478,0.30854396296296305,-1.5315299999999983,-0.38135259259266086,0.665727518518518,-1.9121385185185178,-1.2479022222222205,1.2149281481481482,1.3380211111111115,1.2590929629629632,1.0414114814814803,-1.9091533333333321,-1.9934488888888884,0.6212659259259257,1.7063922222222223
4.033333333333333,-0.00023103393464052026,-3.941388235294099e-05,3.46153470588166e-05,-2.427780261439406e-06,-2.8687988235295053e-06,-5.600455294118022e-06,3.845171176470495e-06,-1.0849857124197985e-06,1.2076191358024682,1.0249989629629557,-0.9800878518518469,-1.79287975308641,0.8202459999999882,1.5692829629629608,1.8057570370370304,1.4932351851851826,-1.9315841975308623,0.002037037036924705,0.40313645679011745,-1.503932098765429,-1.8201362962962913,0.7227215061728399,-1.8083413580246899,-1.4514122222222174,1.3310071604938276,1.3646255555555564,1.3779534567901233,1.058071604938271,-1.7636890123456799,1.749210864197532,0.6765198271604941,1.6172706172839508
4.066666666666666,-1.0922224052293084e-05,-1.701423529411696e-05,-5.452142483659976e-05,-9.56741e-06,-1.283224705882456e-05,-3.4633956209157205e-06,5.416150326798762e-06,-9.27778647058772e-06,1.3963064197530897,1.1299877283950723,-1.7276777777777772,-0.1010588888890509,1.4239106172839504,1.0532459876543128,-1.597472962962966,1.2513337037037149,2.033086790123455,1.814364567901226,0.4915621728395089,-1.69595,1.928600246913579,0.44565849382715855,-1.5581874074074118,-1.8117802469135789,1.1900118518518514,1.2327835802469165,1.201200987654322,1.0099803703703714,-1.5747013580246934,1.8291334567901238,0.5185173086419764,1.457876049382718
4.1,0.0001678847692307564,-2.908633269230759e-05,-3.354076346154472e-05,-4.29306653846134e-06,1.5558321153852108e-06,-9.80627346153866e-06,-2.61457653846134e-06,-4.428640576924665e-06,1.7604003703703752,1.4247022222222445,0.48161503703703334,-1.4100844444444625,0.0,1.3979955555555594,1.2780403703703642,0.0,-0.9381671851851783,-0.44744892592592894,1.3606981481481726,0.628874925925928,-1.9292955555555573,0.1509899629629658,-1.002619518518526,-1.826197407407409,1.3635322222222204,0.8097049259259307,0.8699810000000009,0.5800869259259307,-1.5507748148148157,1.919297037037036,0.20992351851852062,1.0539433333333326
4.133333333333333,6.079157692307909e-05,-1.986647948717779e-05,-4.448e-05,-1.7925469230766762e-05,-3.937999230768768e-06,-7.89752256410318e-06,-1.0393743589742664e-05,-3.1977425641031815e-06,1.9558067901234606,0.10443965432096605,-1.2268176543209672,-1.2356219753086406,1.400036049382719,1.4292334567901128,-0.770465061728389,1.3591088888888878,1.7037585185185278,0.5442770370373142,0.14009818518516703,0.6274839506175616,-1.5756465432098656,0.82740991358023,-0.41293456790149485,-1.7689579012345729,1.4190880246913595,0.8121414567901172,1.257401481481494,0.6719937160493638,-0.44217901234593326,-1.766118148148146,0.4361590493826942,1.007691432098762
4.166666666666667,2.6780601282043603e-05,-2.0856388461538183e-05,-3.9022823076923634e-05,-1.4041248974335926e-06,6.526752692307274e-06,-2.85344e-06,5.683201987180186e-06,-1.2013026282050932e-05,-1.8788135802469192,0.9135970740740614,0.8254702962963107,0.9622855802469104,0.328935098765466,-1.7226090123456714,1.6482562962962457,0.9511984814814608,1.1058637654320838,-1.8087430864197769,1.0057526913580566,-0.70158513580249,0.6699549876542933,0.0,0.9999825432098851,-1.2810725925925905,1.2821186419752872,0.9995844444444456,0.2469247160494048,1.051759283950603,1.7257861728395096,-1.6299518518518443,0.9277216296296279,0.9038541975305876
4.2,5.2317303846160953e-05,-1.774685384614752e-05,-2.6726734615384306e-05,-2.7385223076925546e-05,-5.53902e-06,1.0200028076935426e-06,7.927644615384307e-06,9.115506153847081e-06,-1.1476433333333333,1.6928177777777778,0.9820306666666666,-1.5876333333333332,0.5706873333333333,-1.4685655555555555,0.6606511111111111,0.736299,1.3222055555555556,1.4954255555555556,1.7639811111111112,-1.8015833333333333,-1.7814400000000001,0.3437551111111111,1.4157533333333334,-1.336077777777778,0.0,-0.9350323333333334,-0.8808726666666666,0.22737955555555556,0.8652063333333334,1.3633811111111112,0.7515167777777778,-1.5352655555555557
4.233333333333333,-1.6784891666660934e-06,-4.973935000000095e-05,-4.059157500000067e-05,-1.5637974999998757e-05,3.916479999999809e-06,-1.219705000000019e-05,5.147380000000191e-06,-1.1833375000000287e-05,-1.2604382716049234,1.110643790123449,1.3003723456790135,-1.7575669135802356,1.1239649999999868,-1.8287391358024705,-1.0017738765432285,1.1406318518518461,1.6504430864197643,1.5392917283950764,0.8513810864197653,-1.6057796296296378,1.6401509876543343,0.4473490370370415,1.5804219753086424,1.7831271604938281,0.5734727777777959,-1.7033623456790312,-1.718376296296281,0.8237789012345744,1.1660437037036928,-1.6965976543209689,1.4848313580246877,-0.9371208641975259
4.266666666666667,-3.067336153846125e-05,-3.7180776923077515e-05,-3.658684615384498e-05,-6.254322051281721e-05,5.465849230772171e-07,4.583576153845933e-06,-2.6253333333340686e-07,-9.23171e-06,1.943765432098771,0.6968103333333322,1.7221608641975312,1.8753333333333349,0.9057888395061705,1.6223393827160508,1.780395802469134,0.7334138271604921,1.884881975308642,-1.4736874074074087,0.7941882592592616,-1.99405,-1.7843233333333304,0.8372070123456804,1.456678888888889,-1.6887367901234573,1.4171939506172841,1.8720576543209884,-1.9763906172839514,1.4486279012345682,1.4249076543209884,-1.5037274074074638,1.7714472839506146,-1.2281595061728383
4.3,-8.076132115385608e-06,-4.01289115384622e-05,-2.96770211538531e-05,1.381530096154971e-05,-7.953472500003308e-06,-1.51064e-06,-1.315355576922961e-05,-5.164589807698923e-07,1.6222414814814572,1.3323459259259283,1.7342903703703747,1.8614085185188511,1.1586781481481514,1.7972551851851748,-1.6479100000000084,1.0725944444444422,2.0206088888888925,-1.7292225925929146,1.0625933333333264,-2.0538733333333345,1.8687207407407327,0.8950469999999984,1.4473866666666821,-1.6653611111111075,0.8009022222222419,1.3413007407407411,-1.5446603703703663,1.389939259259259,1.4250040740740675,1.4909477777777767,-1.455137037037044,-1.6120944444444338
4.333333333333333,-5.646616153846316e-06,-4.136838717949058e-05,-3.2508985897435814e-05,6.976501410257057e-06,-3.7529338461536847e-06,-3.068629102564426e-06,5.379781282053061e-06,-1.1467514102564184e-05,-1.68789,0.9952090123456792,1.8358459259259245,-1.68789,1.068017283950618,2.0541717283950613,-1.83858283950617,1.0599575308641982,1.99405,1.6086130864197548,1.0247018518518536,-1.9091517283950614,-2.058301234567901,1.0868644444444435,1.3992425925925942,-1.9491432098765424,0.564421209876539,2.050192962962958,-1.5404316049382736,1.521735185185184,1.5065107407407405,-1.9318779012345706,-1.6654623456790096,1.8643441975308632
4.366666666666666,-2.593057307692306e-05,-2.5926219230769188e-05,-3.3442886538461534e-05,-1.1683810256410238e-05,-2.4972967307692342e-06,-4.5741026923076935e-05,-1.3575350641025644e-05,-1.4217705769230718e-05,-1.8348512345678987,1.1801192592592638,1.7953109876543099,-1.6505428395061812,1.1829477777777762,1.7875028395061812,-1.9025914814814877,1.0804972839506137,2.04642,1.9509846913580213,1.09731296296296,-2.0269756790123465,-1.9648060493827149,1.4246569135802454,1.3242951851851839,-1.988627777777776,1.1299344444444326,-1.6551209876543251,-1.4600113580246934,1.5764922222222237,1.5448112345678986,-1.7986012345678988,-2.0490569135802454,-1.72255703703704
4.4,-1.820516923076976e-05,-3.562278461538373e-05,-4.5564615384614766e-05,-7.593245384615429e-05,-1.4331713846148553e-06,1.1710716153844743e-05,6.907643076923253e-06,-7.4499276923069864e-06,-1.759207407407408,1.1134733333333344,1.8426159259259196,-1.9667485185185218,1.1571862962962975,1.8415670370370367,-1.5692788888888898,1.1894162962962975,-1.9947948148148125,-1.451705555555833,1.0245518518518493,2.003302592592592,-2.0201548148148194,1.574952222222224,1.3633811111111103,-1.6728255555555347,1.6170233333333344,-1.8896055555555518,-1.375469629629629,1.44619,1.667897777777776,-1.8737970370370367,1.7633837037037023,-1.656413333333331
4.433333333333334,-2.0801478205129415e-05,-2.1235099358977815e-05,-2.214425064102685e-05,2.879906410254441e-05,-2.2175500384579107e-06,-7.320806794875941e-06,1.2403634615383924e-05,4.247873397437971e-06,-1.9191046913580272,1.1701185185185181,1.505718148148147,2.024138518518518,1.173499629629629,1.84903,-1.6645658024691359,1.2167669135802466,-2.0084704938271605,-1.8912545679012351,1.1052725925925928,2.0019030864197536,-1.9405324691358052,1.7153950617283937,1.4733933333333347,-1.118643086419749,1.413068148148147,-1.2009046913580206,-0.9697952839506176,1.0341530864197512,1.6100055555555586,1.950332839506172,1.4937329629629594,1.1822540740741319
4.466666666666667,-8.816388846153876e-06,-3.792534230769225e-05,-2.8684984615384497e-05,-1.0699316794871501e-05,-4.4802791025637495e-06,-2.200546282051294e-05,-1.3150325641026612e-05,-6.995871923077128e-06,1.9772913580246942,0.922499,-0.9332918518520037,0.906531975308793,0.9021597901234502,1.7508546913580236,-1.751994444444445,1.0004801234567893,-1.9211392592592582,1.730561851851846,0.8561556790123437,1.9804746913580238,-1.7345439506172764,1.6809318518518517,1.5986213580246942,0.9353819753087538,0.5772027777777549,1.5732039506172821,1.8895127160493772,1.1403782716049375,1.6943570370370329,-1.6287579012345865,0.17898924691358942,-1.635670246913573
4.5,-3.770475384615357e-05,-2.7469148076922967e-05,-1.8837884615383735e-05,2.076170384615407e-05,3.7475540384614833e-06,-1.8721384615483839e-07,-1.1023142307692363e-05,-8.498980192307416e-06,-1.8866266666666667,0.710338,-1.78457,1.77249,0.9963506666666667,1.3145966666666666,-1.3629333333333333,1.1574866666666668,-1.6543233333333334,1.5348166666666667,0.8459603333333333,1.6059833333333333,1.2837133333333333,0.8822146666666666,-1.91348,1.7227999999999999,-0.7627099999999998,0.012085133333333335,1.5374999999999999,0.914443,1.7899433333333334,-1.9067666666666667,0.12085133333333332,-1.66775
4.533333333333333,-1.0557328205128977e-05,-2.9816902564103117e-05,-2.358062307692264e-05,-2.591330769231232e-05,-1.3006123076922635e-05,8.155749743588531e-06,-1.4138084615383953e-05,-1.2080846153845272e-05,-0.4197439506173102,0.46560162962962953,-1.835897283950617,1.9768412345679018,1.0004321604938269,1.2642671604938274,-1.3666627160493832,1.0988007407407405,-1.476827901234568,1.853553333333334,0.646033037037037,1.5218841975308641,-1.8151083950617282,0.8675937901234587,-0.46858555555555303,-1.8239107407407404,1.1063646913580196,1.6033948148148172,1.8315708641975301,1.3542823456790123,2.0440816049382717,1.6718795061728398,0.27775941975308827,-1.3064396296296303
4.566666666666666,-1.9387654487179926e-05,-2.7888773076923825e-05,-3.120816089743596e-05,-5.9973810256421506e-06,-7.292838012821887e-06,6.73548910257285e-07,1.6948496153844403e-05,-1.1822615384615884e-05,-2.002357901234567,0.623354617283951,-1.7157417283950618,-1.926361481481482,1.02609024691358,1.25799975308642,-1.587079629629629,0.9239913086419755,-1.373780370370371,-2.013398518518518,0.5552202592592594,1.423612962962964,-1.124711481481482,1.5915576543209826,-0.7901598395061672,-0.977555234567895,1.3872048148148122,1.1432159259259276,-1.4596150617283965,1.2789412345679019,1.715889259259258,-1.8757319753086419,0.40641907407407357,-0.9378656790123432
4.6,7.039796470590368e-06,-3.5830888235295185e-05,-2.9995645098040812e-05,-1.6485415686275754e-05,7.428157647049584e-06,-3.6959711764698775e-06,-2.4594811764704815e-05,-8.863095686272555e-06,1.8278407407407358,0.4296938888888921,-1.3950137037037094,-1.9686862962962908,1.2586462962962952,0.9863574074074141,-1.359057037037044,0.8616255925926,-1.1598766666666653,1.739811481481489,0.3436061111111167,1.0924359259259295,-1.463495925925903,1.7957622222222465,0.8975828888889045,1.9218392592592513,0.4307383703704072,1.2055285185185332,-0.13964962962994787,0.32794025925929565,0.4173129629632606,1.7430948148148282,0.48997062962960347,-0.023128148148467753
4.633333333333333,-0.00014347014102563673,-3.4628596153846504e-05,-3.2336825641025814e-05,-9.718044615384498e-06,-1.1885030128207775e-05,2.4940688461542577e-06,-3.905724871795753e-06,-7.443471923076746e-06,-1.3626348148148146,0.1132921975308563,-0.7795175308641814,2.0132960493827152,1.2225345679012352,0.719787481481481,-1.5321753086419685,0.13288701481480894,-1.1208327160493803,1.2206,0.008454624691357436,1.1803687654320951,1.5077090123456656,0.045654864197527685,-0.7156593703703772,-0.2825820987655314,0.6178341481481436,0.8302944320987612,1.3153408641975206,1.2402928395061674,1.7254911111111175,0.9430392592592491,0.0,-0.1977351851850928
4.666666666666667,-0.00020310847435897473,-2.386467692307713e-05,-3.44091e-05,-9.350065769230718e-06,-7.417649423078004e-06,-1.096936025641023e-05,-1.2075448717948795e-05,-1.3554913461537896e-05,1.5734572839506296,0.7026291358024489,0.9470162222222147,1.9324756790123458,1.0968153086419734,1.148490123456794,-0.44536017283949453,0.8888793950617299,1.1485882716049358,0.8669974444444359,1.0691615555555622,-1.9057249382716053,-1.0483735802469178,0.67821038271604,0.7628560000000018,-1.7417519753086341,0.6578198148148067,-1.8338575308641907,-1.3576646913580088,1.071352493827154,1.5407811111111087,-0.6810948888888702,0.7555451728394945,-0.00402838
4.7,-0.0001621290769230863,-1.9199407692308133e-05,-3.15943846153866e-05,-6.262066153845934e-06,3.060023076922195e-06,1.17365384615378e-05,-3.279519230768128e-06,-1.5093546153849792e-05,-1.1049703703703662,0.6810949629629628,0.8161202592592592,-1.2901270370370364,0.0,-1.6995325925925946,1.0391714814814839,0.18679777777777815,0.7706144814814815,-1.6604370370370414,1.5480907407407418,0.8301437037037227,1.6213492592592598,-0.8495425925926112,0.4741554444444434,-0.09190663111111172,1.070656666666666,-1.6796848148148147,-0.8232832962962929,0.37836974074074087,1.4109770370370363,1.7987477777777774,-1.8955729629629627,-1.5840499999999984
4.733333333333333,1.0996232307701497e-06,-1.311479743589716e-05,-5.44154288461555e-05,-1.1596663461538277e-05,-1.0819819679488282e-05,-2.98448711538445e-05,-1.1291090384614834e-05,4.94294685897344e-06,1.1398797530863702,0.32540351851852223,1.5336703703703696,-0.635041851851857,0.6472756790123526,-1.0440460000000051,1.7575659259259304,0.5706872592592624,1.161169753086419,-0.6336001975308698,0.8430759259259267,-0.16814745802468853,1.48478419753086,0.7418189876543185,1.6808788888888868,-0.9465202345678995,0.8531214814814804,-1.505620246913581,0.7406257407407384,1.29311,1.0301214074074114,-1.2491418518518544,0.1298037530864208,-1.8788155555555521
4.766666666666667,-1.563365897435885e-05,-4.203981923076919e-05,-3.0591588461538184e-05,-1.15816e-05,-1.7804961538461626e-05,3.2795132051282493e-06,1.1921587948719124e-06,-2.777473333333302e-05,1.7125579012345726,0.769421,1.279636913580247,1.9260150617284042,1.4587679012345727,1.7814904938271627,-1.991761728395067,1.6394535802469103,1.1445554320987588,-1.2464083950618705,1.5580395061728372,-1.1076071604938205,1.2534232098766798,0.7737467283950484,1.8855339506172863,-1.7816916049382805,0.9789469753086378,1.5399816049382806,1.1084525925927249,0.680797,1.9835541975308706,-1.5911135802469103,1.050410123456792,-1.3146444444445842
4.8,-9.64487365384655e-06,-2.5532467307689825e-06,-3.0374244230768338e-05,-7.178785384615186e-06,5.784343653846551e-06,-8.318218653846203e-06,-7.475746346153449e-06,-5.35180826923067e-06,-2.0374644444444443,1.0191814444444445,1.3123533333333335,1.6118022222222221,0.7649448888888889,1.6323866666666667,1.6109022222222222,1.4247077777777777,1.2626766666666667,-1.5831544444444445,-1.8705122222222224,-1.7066911111111112,-1.9197433333333334,1.1342111111111113,1.99047,-1.4873655555555556,1.72146,1.3239944444444445,1.9730144444444446,1.04693,1.9801777777777778,1.9210866666666666,1.0361933333333333,-1.5536166666666666
4.833333333333333,-1.91348e-05,-1.9453284615387365e-05,-4.4462848717951464e-05,-7.071189230768231e-06,1.333756923077148e-05,-5.513200512819764e-06,-1.2072220512820137e-05,-1.736596923077148e-05,1.9771439506172852,1.1321272839506111,1.377112962962964,-1.0135071604938237,0.337837074074057,1.7972033333336128,1.2606392592592537,1.4199791358024663,1.2704803703703622,-1.1598303703703292,-0.9303071358024396,1.6892313580246834,1.9335687654320928,1.2388986419753054,1.7708471604938236,-1.6280153086419684,1.1328172839506219,1.9465055555555544,1.3670674074073874,1.2923656790123528,1.79666,-1.95341370370371,1.0429519753086425,-1.9664470370370362
4.866666666666666,-2.952750448717896e-05,-3.826319423076948e-05,-3.737660192307684e-05,-8.533410961538421e-06,1.2534901923076841e-05,-3.471033525640945e-06,-5.928518076923158e-06,2.799641923076842e-06,2.0256832098765423,1.47031024691358,1.4147076543209836,-1.5736576543209857,1.3551230864197499,-1.4572256790123443,1.506162469135802,1.7514548148148137,1.4389258024691367,-1.9652028395061087,1.9362071604937614,-1.9697804938271604,-2.049952592592592,1.0483249382716062,1.79263,-1.9961901234567878,1.1390850617283939,1.9618697530864198,2.0023088888888894,0.9786980617283948,1.9252716049382712,-1.953471481481481,1.1114818518518514,1.9957419753085754
4.9,-1.8302053846153893e-05,-3.8786111538461624e-05,-2.2904923076922458e-05,-1.8979873076903669e-06,-8.237521538461627e-06,-8.39246e-07,5.293710384616002e-06,1.1065138461539519e-05,1.795017407407406,1.7269859259259266,1.235218148148149,-1.8824440740740735,2.0224007407407427,-1.825604074074071,1.6144851851851858,1.6089696296296263,1.587330740740743,-1.8976622222222268,1.7095225925925916,1.7465288888890655,1.8421633333333327,1.0721470370370367,1.7541403703703693,-1.9082629629629588,1.1148144444444428,1.7988996296296307,1.7204185185185183,1.1731548148148143,1.9640596296296309,-1.877371481481484,1.047229259259257,-1.9949448148148143
4.933333333333334,-1.0856366153844353e-05,-2.94187903846177e-05,-3.220122692307847e-05,2.0400149743574304e-06,1.0781080384623104e-06,-5.20333e-06,-5.044087692307178e-06,-2.000853076922871e-05,1.8393295061728405,1.8807040740740746,1.3260876543209896,-1.3549746913583522,1.1994667901234448,-1.2577518518518764,1.367061481481478,1.1165086419752956,1.3696951851851926,1.7552767901234574,1.758714320987648,-1.6800327160493576,2.0175261728395113,1.217664567901234,1.7551302469135859,-1.7210680246913626,1.187822716049383,1.8618576543209897,1.8338128395061697,1.1002972839506169,1.9935027160493832,1.7646303703703727,1.0158976543209897,-2.0597949382716068
4.966666666666667,-1.15816e-05,-4.160507435897995e-05,-3.0027784615385645e-05,-1.0311987179487105e-05,-2.0572284615387555e-06,-8.904617692307178e-06,-5.164567692314308e-07,-2.017202051282301e-05,-1.2427838271606135,1.726434691358023,1.5977713580246928,-1.2792803703703783,0.8817678765432141,1.6221462962963,-1.8398258024691319,0.7356520246913589,1.8375391358024666,-1.2271614814815974,0.0,-1.883638148148148,-1.9458114814814826,1.0472785185185174,1.7862635802469145,-1.6829207407407392,1.16017,1.8641490123456768,1.560572098765432,1.1093503703703695,1.9973356790123464,-1.2460614814816018,0.9699446790123447,2.0094156790123465
5.0,-7.05289423076911e-06,-2.101347884615378e-05,-3.797914038461541e-05,-1.1933407692307659e-05,-2.4273592307691868e-06,-7.307900769230813e-06,-1.5242021153846221e-05,-2.445109423076957e-05,-1.9157162962962975,1.1903096296296387,1.9043777777777775,0.7170537037035412,1.4118733333333282,0.6270855555555779,-1.8845340740740704,1.1871788888888832,1.972116666666663,-1.832467777777771,0.1421870370370522,1.9941996296296256,1.5844977777777842,0.9107124074074088,2.0347829629629604,-1.63746037037037,1.1477940740740726,1.4502196296296346,1.4819970370370397,1.2100077777777754,-2.011354074074075,0.9814325925924137,0.963678592592592,1.7559270370370397
5.033333333333333,-0.00043965283333337785,-3.189134999999943e-05,-4.347298333333219e-05,-6.098520000000383e-06,-8.22461e-06,-7.832966666657111e-07,9.3156366666681e-06,-1.9274716666665617e-05,0.8203951851852391,0.10394185185185409,-0.266519764197519,1.6652629629629712,1.5442127160493748,0.6912401851851879,0.600974938271658,1.0494696913580224,1.982165061728397,-1.0856237037037029,0.35022041975308293,-1.5285503703703724,-1.7568750617283926,0.703375333333333,-1.8401274074074079,-1.2457618518518514,1.261181728395062,1.3617424691358027,1.1854911111111108,1.0427565432098758,-1.8645465432098758,1.9505825925925921,0.6202214567901232,1.6634214814814812
5.066666666666666,-0.0002642541666666655,-2.7186218589743694e-05,-1.6371782692319207e-05,-1.2524142307693587e-05,-1.960392179488245e-06,-1.67849e-07,-9.935388525640387e-06,-6.215799807692202e-06,1.5047255555555563,0.9979953703703548,-1.032011506172826,-1.9488412345678905,1.0850245679012298,1.5129333333333392,1.9379514814814724,1.760155061728393,-2.013341851851849,1.896572469135808,0.44511145679011943,-1.6773988888888782,-1.9122391358024597,0.675823543209877,-1.8100374074074057,-1.5371498765432046,1.324987901234569,1.297042839506176,1.325584938271607,1.1252112345678995,-1.7616002469135816,1.881853209876544,0.704021543209877,1.539091111111113
5.1,2.8314853846154642e-05,-3.394428461538488e-05,-5.785635384615349e-05,-5.306614615384748e-06,-1.7753276923076945e-05,-1.6139336923078246e-06,-4.777249230769473e-06,2.9696361538463747e-07,1.3436855555555596,1.0397694444444525,-1.8418655555555545,1.7317577777777782,1.3293688888888995,1.2116466666666401,-1.556300000000005,1.0737888888889078,1.7841255555555644,-2.0092677777777745,0.31600433333333783,-1.4730488888888817,2.018218888888887,0.47311122222222246,-1.3642777777777813,-1.7308655555555528,1.2581977777777764,1.1028811111111163,1.054540000000001,1.0742322222222236,-1.503033333333335,1.7908388888888886,0.46729211111111535,1.3248888888888937
5.133333333333333,-0.0003188838039215376,-8.820293660126019e-07,-2.441054771242488e-05,-9.524624705882824e-06,-5.58400196079058e-07,-3.7749635947721816e-06,-1.0098380653595084e-05,-3.3844106535950844e-06,0.002836666666938603,0.5036965802469631,0.9717860370370006,-1.0789586419753248,0.0,1.4431049382716161,1.1858361111110811,0.0,-1.064290320987616,-1.3247929629629565,1.1087500000000827,0.57481486419754,1.8672296296296305,0.03670304814815345,-0.887884691358044,-1.6581027160493877,1.4398714814814781,0.7015845308642051,0.6182326666666652,0.5310001975308792,-1.4402196296296306,1.8489802469135797,0.08116434567901942,0.9642772716049322
5.166666666666667,9.338119551282104e-05,-3.559155128205119e-05,-3.3766720512820565e-05,-1.1624638461538755e-05,-7.611318012820623e-06,-2.85344e-06,-1.1727930769230622e-05,-9.341458076922967e-06,1.7799465432098969,0.5291611111111628,-0.17202629629615807,-1.3470248148148265,1.0934292592592456,1.7006262962963108,-0.734657135802487,1.2194059259259256,1.9073617283950643,-1.3865099999999746,0.2654255679012498,-1.7762662962962725,-1.4839353086419795,0.908524074074079,1.7782537037036763,-1.664267283950617,1.419530987654319,0.8176125679012397,1.4907003703703727,0.48932432098766315,-0.24468901234552187,-1.8554895061728343,0.30685340740741573,1.2618280246913625
5.2,-0.0002290238076923151,-4.4447730769230837e-05,-4.11231e-05,-5.481572692307673e-05,-3.634580000000463e-06,-3.111668846153317e-06,6.72687730769469e-06,-3.511926538460877e-06,-1.9740577777777715,0.969795703703704,0.9487593703703792,1.5974800000000264,0.8044827777777891,-1.5613744444444455,0.6158948148147905,0.5800868888888745,0.7516659999999965,-0.8274592222222162,0.26005481481466,-1.430672592592606,0.5821758518518512,0.0,1.0039630740740895,-1.2622244444444413,0.46505451851850155,0.9672589259259264,0.8649076296296696,0.6700543703703624,1.357413703703686,-1.6507400000000132,1.1140711111111044,-1.8454507407407221
5.233333333333333,9.046209230769112e-05,-2.0482980128205872e-05,-2.7368007692308883e-05,9.701905320508205e-06,-5.543323846154442e-06,-3.5291338461544416e-06,-4.880541474360761e-06,-7.728601666667708e-06,1.9154212345679082,1.7826319753086446,0.9914800740740684,-2.038014814814816,0.6626441481481442,-1.531530864197527,0.993073209876641,1.0287286419753008,1.2787367901234603,0.9697991975308773,1.1187967283950668,-1.140180740740736,-1.376714197530866,0.2960118765432074,1.340806296296297,-1.7062932098765395,0.0,-0.8094562098765413,-1.725393703703694,0.5173733580246854,1.1376495061728367,1.6719743209876483,0.9458733580246872,-1.4991501234567908
5.266666666666667,-1.6027433333332458e-05,-2.3541928205127638e-05,-3.50805e-05,-3.735293076923139e-05,2.186777179487097e-05,-3.1202784615385644e-06,-5.724091282050253e-07,-1.1986161538461435e-05,-1.1074593827160526,0.7296345802469089,1.5395888888888913,1.9467071604938178,0.9118566666666625,1.9396919753086324,-1.0604093950617481,0.9880491358024588,0.9940150617282805,0.7849380987654473,1.2364638271604962,-1.8686751851851897,1.8940366666666697,0.5467162345679025,1.576841481481484,1.8968676543209924,0.9156868765432172,-1.8728493827160526,-1.544611481481484,0.9922261234567975,1.050168765432101,-1.572311234567899,1.2584472839506213,-0.9301588765432136
5.3,-3.20527442307689e-05,-2.629419807692354e-05,-2.1368486538460744e-05,2.9050834230761293e-06,3.679772499999338e-07,-6.21042e-06,3.1352323076922976e-05,-4.9967394230766585e-06,1.6731251851851867,0.9278707777777746,1.83933259259259,1.5912125925925877,1.2417874074074033,1.4996048148148156,1.6389518518518453,1.0346992592592574,1.7745740740740708,-1.147342962962968,0.7333150370370446,1.8357503703703668,-1.8854329629629658,0.8028418518518506,1.4623,-1.799489629629631,1.503033333333337,1.8549951851851934,-1.8173981481481547,1.4063559259259248,1.4728966666666716,1.8967677777777856,-1.840676296296305,-1.3953125925925922
5.333333333333333,-4.7385085897415606e-06,-3.185691923076957e-05,-2.5698155128198366e-05,-8.56031e-06,-5.409908589741561e-06,-5.134464487180164e-06,9.87730641020061e-07,-5.2635798717975775e-06,-1.9798229629629593,1.320418148148147,1.8329609876543205,-1.6392488888888868,1.3061938271604938,1.9243697530864217,-1.1013445679012337,1.2335308641975322,-1.5133776543209283,-1.5146738271604367,1.2516297530864215,-1.5505804938271017,1.5159150617283355,0.9365240246913588,1.3579643209876553,-1.8524082716049397,0.3809554074074048,1.454449135802472,-1.3540362962962964,1.457276172839506,1.3544828395061734,1.3498061728394508,-1.3082261728395062,-1.587825679012349
5.366666666666666,-2.155252564102539e-05,-3.246160961538478e-05,-2.0109671153845648e-05,4.487807692311835e-06,-4.1940760897444354e-06,-3.875061474358543e-05,1.0441082756409919e-05,-6.21042e-06,-1.48647,0.9912306419753084,1.6944580246913594,-1.8164486419753014,1.0054009259259313,1.9622659259259216,-1.5341682716049274,1.2078153086419798,1.997582469135803,1.7920298765432028,0.9895896790123546,-2.0059328395061766,-1.856292098765429,1.1425170370370348,1.351799259259261,-1.934117530864197,0.6140052592592539,-1.8778201234567973,-1.407898888888887,1.5073562962962956,1.406158148148148,-1.4676777777777652,-1.762793827160484,-1.9624201234567973
5.4,-1.49386e-05,-2.26596e-05,-3.0045e-05,-9.23171e-06,-2.85344e-06,4.41443e-05,-3.18914e-06,-8.39246e-07,-1.80069,1.22463,1.89334,-1.74026,1.19643,1.7886,-2.02225,1.04738,1.97794,1.97794,1.16823,-2.06253,2.00613,1.36965,1.30922,-1.71609,1.25283,-1.82889,-1.72415,1.57107,1.59927,1.91348,1.92557,-1.67984
5.433333333333334,-1.8967e-05,-2.0109671153845648e-05,-2.710334102563612e-05,-8.100880384611242e-06,-6.74947673076847e-06,-9.43399076923043e-06,-3.5538869871812624e-06,-8.529109102563173e-06,-1.9190019753086407,1.177533209876542,1.6601875308641971,-1.9739609876543247,1.154606419753084,2.0267769135802465,-1.748019629629626,1.1591755555555565,2.0582512345679014,-1.718676543210111,1.0840859259259217,-2.0260312345679012,-1.722209012345914,1.5839472839506203,1.4258012345679014,-1.5751,-1.851609629629635,1.8642481481481565,-1.4678219753086406,1.4823983950617248,1.422765679012345,1.6180206172839595,1.4864190123456753,-1.649399753086441
5.466666666666667,-1.339351923076934e-05,-3.094880769230372e-05,-3.6520106410256904e-05,7.445619743586325e-06,-6.610677692308024e-06,-1.1719323076922636e-05,-5.87472e-06,-1.3264403846153295e-05,1.5133266666666079,1.1702188888888891,1.584051851851853,-1.9425718518518529,1.061947654320988,2.014738518518518,-1.827439629629629,1.0729903703703711,1.9784362962962965,-1.7992906172839496,1.003514432098766,-1.9371014814814818,-1.954909259259258,1.669738888888889,1.4719035802469134,-1.0439497530864188,0.7889165185185198,-1.9334779012345598,-1.6698420987654314,1.2966424691358023,1.4491739506172843,-0.8592891358024763,1.4445954320987662,1.4531545679012257
5.5,-2.6894584615384877e-05,-3.333744230769244e-05,-2.5048257307685694e-06,-8.502214038462002e-06,5.390539230770224e-07,-1.0768177115384217e-05,-6.5525757692311005e-06,2.8243850000002315e-06,2.0119503703703727,0.9991871851851843,1.790090000000002,-1.987335185185186,0.9060869999999995,1.774128148148147,-1.9545144444444444,0.8623720000000005,-1.940488518518517,1.7568259259259256,0.9275721111111115,1.9316840740740726,-1.7308622222222236,1.747273333333333,1.7022162962962983,-1.3023596296297097,1.4848311111111143,1.7935259259259313,-1.5045285185185178,0.9790455555555547,1.5813614814814791,-0.35300533333333983,0.5890390000000012,-1.1468951851851878
5.533333333333333,6.373966153846411e-06,-3.1129569230768613e-05,-3.5631392307691485e-05,2.958879230768747e-05,-6.2792815384614355e-06,-1.4848179487176862e-05,-1.2244392307692821e-05,-1.4198338461538564e-05,-1.6920219753086412,0.8225359012345704,-1.7269809876543227,1.8147079012345686,1.0314651851851833,1.2857988888888914,-1.1504783950617343,1.326479259259258,-1.6433835802469154,1.6857059259259277,0.9495542345679026,1.5889737037037057,1.0227074074072884,1.409581851851855,-1.9040345679012383,-0.7682270000000018,1.3068838271604875,1.0525509259259342,-1.594841728395056,0.8678927037037059,1.7397175308641932,1.1675366666666829,0.31868940740742224,1.061798395061611
5.566666666666666,-1.6781672435896984e-05,-2.5037475000003917e-05,-3.845041153846335e-05,1.489125782050619e-05,-4.187622371793666e-06,-1.8317119230772246e-05,-2.2974857051279186e-05,-2.849136153845551e-06,1.9338749382716043,0.40527545679012295,-1.8694180246913572,1.996138888888888,1.0301226419753098,1.2187124691358022,-1.157534691358023,1.2575472839506183,-1.5794216049382714,1.6251767901234555,0.5773514814814821,1.6473083950617284,-1.9921624691358022,0.628179209876544,-1.1719614814814816,1.7608492592592608,1.3350830864197547,0.8808229753086402,0.6865155185185166,1.433060617283949,-0.6318575308641532,1.6768495061728372,0.27388003703703645,-1.3021658024691365
5.6,-1.79469884615378e-05,-3.480935769230756e-05,-4.9192711538462196e-05,-8.08258307692268e-06,5.061301153845757e-06,6.455738846157817e-07,-1.6701015384617965e-05,2.5823115384218432e-08,-1.748615925925923,0.5929180740740718,-1.6579014814814843,-1.8172477777777782,0.9019100740740735,1.1358570370370384,-1.8540985185185181,0.8059751481481453,-1.289381111111113,-1.9649533333333369,0.594708148148148,1.3108670370370406,2.0410440740740725,0.8726668518518564,-0.6056002592592752,0.5102618518516786,1.359052592592593,1.137197777777776,-1.7360851851852008,1.4008303703703755,1.72818,1.992851851851844,0.4781839259259229,-0.8316370740740762
5.633333333333333,-1.2661865384616458e-05,-3.427783269230823e-05,-3.789736730769177e-05,-7.684483397435361e-06,-1.1883957371770993e-05,-4.955852756414013e-06,-5.492653012822418e-05,-9.11442628204833e-06,1.670189506172825,0.33445532098765757,-1.3243462962963015,-1.9731623456790068,1.2985801234567809,0.9371703333333428,-1.1618656790123636,1.0220159259259245,-1.0123197530864212,1.7206159259259424,0.3627530740740807,0.873363234567913,-1.5759428395061819,-1.9588888888888871,1.2472528395062172,1.8498233333333216,0.684128987654336,1.5804192592592639,-1.519096913580222,0.7152618271605108,1.9212387654320888,1.5968761728395033,0.16804841975306756,-1.5533099999999647
5.666666666666667,-0.00017753621568629408,-3.13878e-05,-3.465922941176564e-05,-1.0980390849673046e-05,-6.789665424841301e-06,-8.699628823513746e-07,-8.33432006536073e-06,-1.160573529411984e-05,-1.1833006172839382,0.0,-0.2545840370370226,1.7925304938271593,1.3617939506172863,0.5921222716049377,-1.1909071604938333,0.3682732345678974,-1.2654123456790183,1.2142814814814782,0.1227416666666652,1.146497777777783,0.47161770370349254,0.0,0.10891148148126883,-0.5110573209876955,0.33798582716051295,0.7934917283950844,0.7477376543210171,0.3466398148148649,-1.3276738271605693,1.67581,0.0,0.43640798765436073
5.7,-0.000591772000000003,-1.6307184615384505e-05,-3.385389230769224e-05,-6.132950769230814e-06,-4.790160769230814e-06,-6.907643076923253e-06,-8.534486923076746e-06,-7.475750769230813e-06,1.70893,0.8840046666666668,0.9802397777777778,1.8253033333333333,1.127051111111111,1.057228888888889,-0.6105236666666667,0.7076522222222222,1.2577522222222222,1.2555133333333333,0.641408,-1.86335,-1.73668,-0.39343555555555554,1.1727100000000001,1.7366833333333334,1.1462955555555556,1.779648888888889,-1.9058744444444444,1.187028888888889,1.5656977777777779,-1.30609,0.6499122222222222,-0.14278372444444445
5.733333333333333,0.00010811235897436197,-2.66826217948719e-05,-2.6639583333334294e-05,-9.535131153846793e-06,-1.5566961538462394e-05,1.8570996153844021e-06,1.0996233333348254e-06,8.27840807692201e-06,-0.5491529012346045,0.5959520740740913,0.6381253703703866,-1.693860987654309,0.0,-1.6904783950617062,-0.46435469135785756,0.2508039999999965,0.8359639999999929,0.3793149382714036,1.4793591358024687,-1.9772861728394977,1.416698518518501,1.7394120987654487,0.6690096296296205,-0.9389123827160211,0.7348069876543373,-1.4290337037037073,-0.8891284567901301,0.49946929629628833,1.2176630864197575,-0.3740944444442229,0.4107469135800128,-1.8314748148148114
5.766666666666667,-2.6576099999999236e-05,-2.168053333333381e-05,-6.439820000000078e-05,-6.7139700000005735e-06,-5.594950000038227e-08,-3.312224999999866e-05,-5.650923333335245e-06,-7.441320000000382e-06,1.6114023456790043,0.304714827160489,1.6324918518518514,-0.8793300617283901,0.44003828395061045,-0.7983170370370315,1.6401958024691285,0.4539638888888858,1.1373461728395078,-0.553529814814812,1.3990437037037051,-0.6814928518518559,1.7090318518518515,1.2300519753086452,1.6894327160493814,-1.3179275308641951,0.6191272098765401,-1.3599062962962927,1.2033935308642043,1.057527160493825,1.3329948148148159,-1.6918691358024722,0.8753024444444489,-1.9664960493827184
5.8,-1.3686180769230814e-05,-4.080350769230766e-05,-5.019661538461559e-05,-1.1826919230769185e-05,-2.391201923076919e-05,-9.322090769230814e-06,-8.715248461538374e-06,-2.03098e-05,1.961370740740755,0.7773285555555565,1.2771466666666658,1.9300433333333424,1.4746862962963003,1.8047129629629688,0.9987411111113227,1.4512618518518459,1.0964655555555454,-1.942129629629621,1.2186596296296293,-0.8625199999999857,1.7465225925925738,0.39060414814814315,1.5383937037036888,-1.8245566666666684,0.9160840000000022,1.8615559259259349,0.7741948148150087,0.8786344074074164,1.9413840740740758,-1.6070237037036996,1.0132096296296291,-1.8156055555555508
5.833333333333333,-2.3090012820512732e-05,-2.7871579487180105e-05,-5.680621538461891e-05,-6.7656161538464185e-06,-1.6074815384614326e-05,-9.085379230769055e-06,-1.2093735897436515e-05,-4.86763e-06,-1.897071604938268,0.9742716790123482,1.2725701234567854,1.1706182716050524,0.7732002098765498,1.648406049382716,1.746375432098771,1.4899008641975333,1.1973275308641986,-1.915718641975316,1.7750256790123375,-1.3281740740740695,-1.3220025925925913,1.2309964197530856,1.8536511111111087,-1.4104793827160464,1.539840987654323,1.4216201234567856,-1.6968418518518433,0.9111603209876536,1.8705651851851826,-1.2152783950618469,1.1206343209876537,2.043982098765432
5.866666666666666,-1.1811805769232056e-05,1.2042111538464111e-05,-1.4170341923057625e-06,-3.462426602562816e-06,-9.934310512821156e-06,3.6044511538464113e-06,9.365115000002057e-06,-4.6083208974388565e-06,-1.4616559259262698,1.1235192592592547,1.257205555555553,-0.9741223456790103,0.4126355308641839,-1.9564037037037147,1.3669149382716066,1.4543951851851802,1.189264197530861,-0.5422898765431432,-0.4260639135802149,1.6639203703703729,1.8417628395061825,1.1594775308642031,1.61150518518518,-1.41411518518518,1.1647472839506168,1.933419629629627,1.2326348148148072,1.2614272839506169,1.8452003703703728,1.4288334567904601,1.02321,-2.04642
5.9,-9.270444230767776e-06,-2.4325188461538945e-05,-1.562931923077481e-05,-8.682970000001697e-06,-6.9657453846185386e-06,1.17494e-06,-1.0845600000033963e-06,-8.54740003847464e-06,1.90945,1.380542962962971,1.3142962962962927,-1.5063185185185275,1.3380233333333436,-1.635369259259264,1.402476296296297,1.7423488888888914,1.3426433333333347,1.8163507407407449,-1.7771133333333435,-1.8396288888888825,1.708485555555561,1.0995992592592638,1.8646937037036984,-1.85932296296298,1.1303366666666694,1.9885281481481463,1.7575640740740754,1.111233703703703,1.7587574074074102,-1.9058755555555609,1.0658774074074102,2.0414944444444436
5.933333333333334,-1.4737387179487383e-05,-4.3204009615384215e-05,-4.813396538461684e-05,-6.5999180769231575e-06,-8.03631833333305e-06,-4.693322628205371e-06,6.666627692307369e-06,6.818336282048411e-06,1.8970218518518513,1.7810871604938279,1.168031111111111,-1.932724320987596,1.7312054320987642,-1.7979049382716015,1.4298809876543208,1.6912734567901229,1.482241111111111,-1.9895724691358019,1.9851943209876532,-1.9098479012345684,1.768211358024691,0.9743706790123451,1.6485051851851862,-1.9678906172839483,1.1511253086419742,1.8577762962962971,1.8088395061728397,1.0755302469135801,1.91751,-1.5839955555555567,1.0953718518518514,-2.0017120987654318
5.966666666666667,-1.6152266666667793e-05,-5.1874007692301445e-05,-3.091437692307942e-05,-5.388391794873919e-06,-6.158777435895936e-06,-5.323834102564353e-06,-9.04234076923177e-06,-1.975882564102102e-05,1.6352697530864146,1.8407709876543212,1.2748113580246943,1.6159770370370363,1.1514204938271506,-0.8729654197530881,1.106167160493824,1.3444341975308602,1.2737655555555545,-1.9302382716049427,1.8020308641975236,1.7702501234567876,1.9020382716049427,1.2308898765432124,1.8969719753086425,-1.6568540740740725,1.2131882716049427,1.662077160493824,1.783723209876539,1.0862674074074095,2.013195432098767,1.8219723456790053,0.9503001234567907,2.010757037037036
6.0,-1.2517686538460766e-05,-7.240089807695473e-06,-3.064538653846077e-05,-7.143278653846077e-06,6.171685384615693e-06,1.7688707692313868e-06,-1.0455051730770852e-05,-6.609066538462041e-05,1.7689033333333333,1.7608466666666667,1.5486933333333333,-1.259088888888889,0.9153377777777778,1.52989,-1.5952422222222225,0.9368225555555556,1.7433922222222222,1.9488444444444444,0.010294755555555549,-1.9743555555555556,-1.7407066666666666,0.9453266666666666,1.7809877777777778,-1.7554822222222224,1.1888177777777778,1.8253077777777778,1.45783,1.18658,2.047762222222222,-1.5513766666666666,0.9699447777777778,1.9246744444444444
6.033333333333333,-1.3105161538461626e-05,-6.492319487179406e-06,-3.036137051282067e-05,-1.0116142820512842e-05,-7.983597051282125e-07,-6.757005769231064e-07,-6.447129102564e-06,1.4546948717950626e-06,-1.6725276543209964,1.402322592592598,1.8590220987654313,-1.5422723456789815,1.4799588888888913,1.0025193580247405,-1.0400676543209966,0.8538674691358007,2.0041467901234493,1.2468074074071371,0.1559632222222405,-1.8118237037036846,1.7260367901234712,0.917526197530869,-1.9151681481481522,-1.5067675308641995,1.2154737037037067,1.3851162962963046,1.4342575308641994,1.176986543209877,-1.948641975308645,1.9623690123456776,0.8422302345679048,1.7756676543209857
6.066666666666666,-0.0001439351153845932,-5.574849743589798e-05,-2.587570128204382e-05,-6.896883461538825e-06,-4.845034807691762e-06,-7.530624807691762e-06,-2.6873065384611745e-05,-4.2997420512825246e-05,-1.8069529629629608,0.0,-0.2298665130864339,0.6588644938271584,1.8825471604938298,0.391946975308637,0.9584059259258708,1.1328217283950637,1.823461604938271,-1.314342345679019,0.522247580246914,-1.5707720987654332,-1.030120987654263,0.590729580246914,-1.9042335802469137,-1.3122579012345688,1.1625604938271603,1.2898309876543204,1.224824320987655,1.0208195061728398,-1.8416641975308645,1.94168,0.642651086419753,1.6089695061728397
6.1,-0.00026978561538461087,-2.2853315384615274e-05,-3.284684615384207e-05,-8.766894615383733e-06,-5.900543076922967e-06,-4.970920769230328e-06,-6.571944615385938e-06,-5.77143461538219e-06,1.1485359259259345,0.9111602592592511,-1.075127407407418,-1.7089270370370062,0.7045195925925555,1.4905018518518423,1.498108888888871,1.6614870370370327,-1.965554444444442,1.7514496296296411,0.442525518518504,-1.5740529629629496,2.0310533333333347,0.6030635185185182,-1.702663703703707,-1.4336540740740655,1.45022,1.2358214814814836,1.1662925925925909,1.0961677777777767,-1.74832,1.776815555555558,0.6094794814814818,1.5254137037037068
6.133333333333333,3.2967311538461035e-05,-5.381719423076289e-05,-5.2334519230759595e-05,-9.744957756409876e-06,4.443701153847422e-07,-7.198152692308453e-06,-5.657375769230516e-06,-7.710306858972584e-06,0.7069560617283943,1.1464438271604966,-1.3361283950617426,1.681823703703703,1.2966417283950642,1.099001629629624,-1.4707601234567937,1.1741029629629667,1.8775249382716053,-0.5018569135801336,0.4282517901234599,-1.5992174074074057,-2.0291130864197515,0.5018071481481476,-1.4698617283950641,-1.8107337037037028,1.2257743209876542,1.1101412345679025,1.1567434567901242,0.941547123456792,-1.5365577777777784,1.837238518518519,0.44401718518518624,1.3182245679012372
6.166666666666667,-0.00047163078205128875,-3.8553703846153495e-05,-4.501367692307598e-05,-4.590031923076746e-06,-1.9625438461534932e-06,-1.4013273076922489e-05,-1.2866270512820689e-05,-5.573455256410492e-06,0.06241345679002497,0.33142150617281646,0.7713605555555658,-0.7733992469135744,0.00934980864197578,1.4563354320987647,1.6265214814814841,0.0,-1.0554354074074168,-0.5317459876543306,0.5467638765431853,0.6117670493827181,-0.3353508641976486,0.00676369135802422,-0.8599348148148096,-1.8632054320987648,1.3669135802469141,0.6783596666666644,0.7507213827160485,0.28999366666666077,-1.540682469135801,2.0031018518518553,0.02705480740740552,1.0009758271604945
6.2,-8.278256274511496e-05,-2.8623211764705262e-05,-3.05486e-05,-3.121665882352982e-05,1.6751988235298245e-06,-5.038768627450568e-06,-4.6899090196090815e-06,-5.453451960784521e-06,-1.667304074074068,1.3189212592592905,0.11458444444451565,-1.1146648148148186,1.178823703703699,1.7598100000000099,-1.1509240740740805,1.4121696296296273,1.516908888888889,-1.558837407407402,0.6628924814814845,-1.858724444444436,-1.7835281481481549,0.8396935185185156,1.8414199999999927,-1.6323911111111096,1.3013192592592593,0.923245000000001,0.8382015185185137,0.9236953703703746,1.547345925925916,-1.7638333333333327,0.7242131851851893,1.097810555555561
6.233333333333333,-0.0004743679871794879,-7.800255769230795e-05,-3.9002376282051847e-05,-2.856878782051707e-05,-1.5579823076920577e-06,-5.600350512821075e-06,-9.241392948717012e-06,-8.309611666667104e-06,0.08793061728389362,1.1253093580246958,1.0767723456790106,1.4990044444444546,1.0499651851851879,-1.4933856790123454,0.713471061728386,0.5626800987654285,0.719140765432098,-1.9263143209876568,1.5408828395061838,-0.7283910864197601,0.8168163580246923,0.046003333333334805,0.8156229012345707,-0.8720207407407388,0.5587017283950513,1.1474466666666696,1.2302974074074204,0.6768675802469094,1.4587225925925884,-1.6046411111111174,0.6778621728395038,-1.4849813580246864
