X [s],L_Quad: EMG 1 [Volts],L_Hamstrings: EMG 2 [Volts],L_AnteriorTibialis: EMG 3 [Volts],L_Calf: EMG 4 [Volts],R_Quad: EMG 5 [Volts],R_Hamstrings: EMG 6 [Volts],R_AnteriorTibialis: EMG 7 [Volts],R_Calf: EMG 8 [Volts],L_Quad: Acc 1.X [g],L_Quad: Acc 1.Y [g],L_Quad: Acc 1.Z [g],L_Hamstrings: Acc 2.X [g],L_Hamstrings: Acc 2.Y [g],L_Hamstrings: Acc 2.Z [g],L_AnteriorTibialis: Acc 3.X [g],L_AnteriorTibialis: Acc 3.Y [g],L_AnteriorTibialis: Acc 3.Z [g],L_Calf: Acc 4.X [g],L_Calf: Acc 4.Y [g],L_Calf: Acc 4.Z [g],R_Quad: Acc 5.X [g],R_Quad: Acc 5.Y [g],R_Quad: Acc 5.Z [g],R_Hamstrings: Acc 6.X [g],R_Hamstrings: Acc 6.Y [g],R_Hamstrings: Acc 6.Z [g],R_AnteriorTibialis: Acc 7.X [g],R_AnteriorTibialis: Acc 7.Y [g],R_AnteriorTibialis: Acc 7.Z [g],R_Calf: Acc 8.X [g],R_Calf: Acc 8.Y [g],R_Calf: Acc 8.Z [g]
0.0,0.0,0.0,0.0,0.0,0.0,0.0,0.0,0.0,0.0,0.0,0.0,0.0,0.0,0.0,0.0,0.0,0.0,0.0,0.0,0.0,0.0,0.0,0.0,0.0,0.0,0.0,0.0,0.0,0.0,0.0,0.0,0.0
0.01,0.0,0.0,0.0,0.0,0.0,0.0,0.0,0.0,0.0,0.0,0.0,0.0,0.0,0.0,0.0,0.0,0.0,0.0,0.0,0.0,0.0,0.0,0.0,0.0,0.0,0.0,0.0,0.0,0.0,0.0,0.0,0.0
0.02,0.0,0.0,0.0,0.0,0.0,0.0,0.0,0.0,0.0,0.0,0.0,0.0,0.0,0.0,0.0,0.0,0.0,0.0,0.0,0.0,0.0,0.0,0.0,0.0,0.0,0.0,0.0,0.0,0.0,0.0,0.0,0.0
0.03,0.0,0.0,0.0,0.0,0.0,0.0,0.0,0.0,0.0,0.0,0.0,0.0,0.0,0.0,0.0,0.0,0.0,0.0,0.0,0.0,0.0,0.0,0.0,0.0,0.0,0.0,0.0,0.0,0.0,0.0,0.0,0.0
0.04,0.0,0.0,0.0,0.0,0.0,0.0,0.0,0.0,0.0,0.0,0.0,0.0,0.0,0.0,0.0,0.0,0.0,0.0,0.0,0.0,0.0,0.0,0.0,0.0,0.0,0.0,0.0,0.0,0.0,0.0,0.0,0.0
0.05,0.0,0.0,0.0,0.0,0.0,0.0,0.0,0.0,0.0,0.0,0.0,0.0,0.0,0.0,0.0,0.0,0.0,0.0,0.0,0.0,0.0,0.0,0.0,0.0,0.0,0.0,0.0,0.0,0.0,0.0,0.0,0.0
0.06,0.0,0.0,0.0,0.0,0.0,0.0,0.0,0.0,0.0,0.0,0.0,0.0,0.0,0.0,0.0,0.0,0.0,0.0,0.0,0.0,0.0,0.0,0.0,0.0,0.0,0.0,0.0,0.0,0.0,0.0,0.0,0.0
0.07,0.0,0.0,0.0,0.0,0.0,0.0,0.0,0.0,0.0,0.0,0.0,0.0,0.0,0.0,0.0,0.0,0.0,0.0,0.0,0.0,0.0,0.0,0.0,0.0,0.0,0.0,0.0,0.0,0.0,0.0,0.0,0.0
0.08,0.0,0.0,0.0,0.0,0.0,0.0,0.0,0.0,-1.7501040740740739,0.9196677777777779,1.451564074074074,-1.5030329629629628,0.9128018518518518,1.6265685185185184,-1.6403003703703705,0.8922125925925926,-1.7157914814814819,-1.684911851851852,0.8853466666666666,1.7363807407407408,-1.7089255555555558,0.9196677777777779,1.420675925925926,-1.5579433333333335,0.8956455555555556,1.6711799999999997,1.5407785185185185,0.905935925925926,-1.7055011111111114,1.6608896296296296,0.8887796296296296,1.7295148148148147
0.09,-1.6169466666666682e-05,-3.2842499999999955e-05,-3.6199500000000005e-05,-9.343609999999997e-06,-3.6367333333333434e-06,-4.699780000000005e-06,5.20333e-06,-8.616260000000007e-06,-2.05313,1.07558,1.69998,-1.7604,1.07155,1.9121366666666668,-1.92557,1.0420066666666667,-2.01016,-1.9765966666666668,1.03932,2.04239,-2.000766666666667,1.08095,1.6650633333333333,-1.82889,1.0500666666666667,1.9604766666666666,1.81277,1.06752,-2.0074733333333334,1.95511,1.04335,2.0303
0.1,-2.226881550894744e-05,-3.386372207042519e-05,-2.7968982624591098e-05,-2.4160015066385222e-06,-8.142836861650985e-06,-3.5005805137579165e-06,2.5662448932076613e-06,-7.701104237059886e-06,-2.0537255555555554,1.07558,1.7032637037037037,-1.7571162962962963,1.07155,1.9127337037037038,-1.92557,1.0426037037037037,-2.01016,-1.9771937037037037,1.0426037037037037,2.0391062962962963,-2.0013637037037038,1.0803544444444444,1.66775,-1.8321655555555556,1.04738,1.95779,1.81277,1.06752,-2.01016,1.9545144444444444,1.04335,2.033583703703704
0.11,-7.503414797687864e-06,-3.4259684393063596e-05,-3.393692080924854e-05,-5.13508892100192e-06,-4.164860674373808e-06,-8.423830809248541e-06,-8.088130809248542e-06,-9.517604797687865e-06,-2.055664074074074,1.07558,1.70401,-1.7575640740740741,1.07155,1.91751,-1.92154,1.0461859259259259,-2.01016,-1.98196,1.0461859259259259,2.035524074074074,-2.000465185185185,1.080801111111111,1.66372,-1.83291,1.05141,1.95779,1.80874,1.07155,-2.004938888888889,1.9509340740740742,1.04335,2.033135925925926
0.12,-2.674417076923077e-05,-3.161116961538462e-05,-3.403595653846154e-05,1.3434355769230821e-06,-1.8657061923076982e-07,-2.331812730769235e-06,-7.21752e-06,-3.35698e-07,-2.0553655555555554,1.07558,1.7071366666666665,-1.7604,1.0684155555555557,1.91751,-1.92154,1.0402155555555557,-2.01016,-1.98196,1.04335,2.03836,-2.00613,1.08363,1.6668544444444444,-1.83291,1.05141,1.9609244444444442,1.80874,1.07155,-2.00211,1.95377,1.04335,2.0303
0.13,-1.1880431213872831e-05,-2.9566707514450863e-05,-3.1300479190751446e-05,-7.378574682080927e-06,-7.590085086705204e-06,-1.6852838381502867e-06,-3.028075317919073e-06,-1.9453035838150306e-06,-2.055514814814815,1.0766248148148148,1.70401,-1.76443,1.0725948148148148,1.91348,-1.923627037037037,1.04738,-2.01016,-1.9789822222222222,1.04738,2.03836,-2.00613,1.07961,1.6687948148148148,-1.83291,1.0524548148148147,1.96182,1.8036677777777779,1.0705051851851852,-2.0031522222222224,1.95377,1.04335,2.033285185185185
0.14,-2.3915079190751433e-05,-2.9100013294797686e-05,-3.1599310404624286e-05,-7.231096936416234e-06,-1.3680182312138881e-06,9.634333757225373e-07,3.506399306358391e-06,-5.1043601156069584e-06,-2.055514814814815,1.0766248148148148,1.70401,-1.7674151851851851,1.07558,1.91348,-1.92959,1.04738,-2.013145185185185,-1.9879303703703703,1.04738,2.03836,-2.00613,1.07961,1.67178,-1.83291,1.0524548148148147,1.96182,1.8036677777777779,1.06752,-2.00613,1.9507848148148148,1.04335,2.033285185185185
0.15,-1.39315e-05,-2.9802313076923073e-05,-3.440840999999999e-05,-7.628105807692312e-06,3.711401730769232e-06,-1.62814e-05,-8.894719961538442e-06,-8.243331730769231e-06,-2.056711111111111,1.07558,1.7049033333333334,-1.76846,1.07558,1.91348,-1.9304855555555556,1.0464844444444443,-2.01016,-1.99002,1.0464844444444443,2.03836,-2.00613,1.0764755555555556,1.67178,-1.83694,1.05141,1.9568966666666665,1.8078444444444444,1.06752,-2.005236666666667,1.95377,1.0464844444444443,2.0294066666666666
0.16,-1.8488310019267822e-05,-3.0156584007707144e-05,-3.91089e-05,-2.7110373988439324e-05,1.4359336801541476e-06,-8.510504797687866e-06,-7.988520404624272e-06,-4.189763275529876e-06,-2.05045,1.07558,1.7052011111111112,-1.765624074074074,1.0727440740740741,1.91348,-1.930784074074074,1.0461859259259259,-2.007324074074074,-1.987184074074074,1.04335,2.035524074074074,-2.00613,1.082438888888889,1.67178,-1.83694,1.05141,1.9565988888888888,1.80471,1.06752,-2.004938888888889,1.95377,1.04335,2.02628
0.17,-6.769489615384556e-06,-3.892297384615393e-05,-3.604365076923072e-05,-3.899266461538662e-06,-1.3160651538461545e-05,-2.3627974615385287e-07,-1.4459561538461492e-05,-6.88182e-06,-2.049703703703704,1.0722962962962963,1.70803,-1.7611462962962963,1.0748337037037037,1.91348,-1.9207937037037037,1.04738,-2.01016,-1.97794,1.04335,2.0303,-2.00613,1.0803544444444444,1.6725262962962963,-1.8296344444444443,1.0521562962962963,1.9610737037037036,1.80069,1.0708037037037037,-2.0028544444444445,1.95377,1.0408125925925926,2.0303
0.18,-1.6169499999999995e-05,-2.2995333333333262e-05,-3.4409066666666655e-05,-7.553216666666676e-06,3.86053e-06,-1.3036300000000006e-05,-6.098519999999995e-06,-9.399573333333352e-06,-2.049106666666667,1.07558,1.70803,-1.76443,1.07155,1.9107933333333333,-1.91751,1.04738,-2.01016,-1.98062,1.04335,2.032986666666667,-2.00613,1.08095,1.6731233333333333,-1.83023,1.05544,1.95779,1.80337,1.0702066666666668,-2.00613,1.95377,1.0446933333333333,2.0276199999999998
0.19,-2.1975914065510594e-05,-2.6438330828516396e-05,-3.4613772447013493e-05,-8.969747572254353e-06,-1.1786272447013496e-05,3.8113723506743622e-06,1.7726028670520058e-06,-5.588178381502902e-06,-2.04642,1.074982962962963,1.71206,-1.76443,1.072147037037037,1.90945,-1.922137037037037,1.0502159259259258,-2.00613,-1.9791325925925927,1.04335,2.037762962962963,-2.0055344444444447,1.079012962962963,1.672377037037037,-1.8294855555555556,1.052007037037037,1.95779,1.8012855555555556,1.068117037037037,-2.00211,1.953172962962963,1.04335,2.0303
0.2,-2.379088959537574e-05,-3.280534855491328e-05,-3.401130520231213e-05,-9.574236069364088e-06,-2.057850404624259e-06,5.4769270520231125e-06,9.200662601156065e-06,-4.909335144508902e-07,-2.0489574074074075,1.07155,1.71206,-1.7618925925925926,1.07558,1.9069125925925925,-1.9230325925925926,1.0458874074074074,-2.003598888888889,-1.98599,1.04335,2.03433,-2.00211,1.07558,1.6732725925925926,-1.8303788888888888,1.0529025925925926,1.95779,1.80471,1.0690125925925926,-2.0046411111111113,1.94974,1.04335,2.0303
0.21,-1.0984885549132943e-05,-2.9670490751445156e-05,-3.23949e-05,-8.337156820809219e-06,-4.86763e-06,-4.009945606936407e-06,-2.85344e-06,-1.0983937572254374e-05,-2.0540233333333333,1.0679677777777778,1.715642222222222,-1.76443,1.0751322222222222,1.90945,-1.9179577777777779,1.05141,-2.00613,-1.985542222222222,1.0469322222222222,2.0298533333333335,-2.0056833333333337,1.07558,1.6713322222222222,-1.8293366666666666,1.05544,1.95377,1.80471,1.0679677777777778,-2.00613,1.95377,1.03932,2.0298533333333335
0.22,-1.072938138728326e-05,-3.826415202312135e-05,-3.50805e-05,-1.0936072832369896e-05,-5.140581348747618e-06,-7.715569055876652e-06,7.396361888246693e-07,-1.7282952023121354e-06,-2.05045,1.073938148148148,1.71206,-1.76443,1.07155,1.90945,-1.919151851851852,1.049021851851852,-2.00613,-1.98196,1.045738148148148,2.02628,-2.00211,1.077968148148148,1.670138148148148,-1.8305277777777778,1.05544,1.956152222222222,1.80471,1.07155,-2.00613,1.951381851851852,1.03932,2.028662222222222
0.23,-1.826487418111755e-05,-3.9595956069364244e-05,-2.790601175337185e-05,-1.4465725818882452e-05,-1.0885620809248565e-05,-4.56879842003852e-06,-1.6555652023121414e-05,2.926846358381695e-07,-2.054172222222222,1.0718485185185185,1.70803,-1.76443,1.07155,1.90945,-1.92557,1.04335,-2.0058322222222222,-1.9856914814814814,1.04335,2.026577777777778,-2.00613,1.0758785185185185,1.67178,-1.82889,1.0476785185185185,1.9574922222222222,1.80069,1.06752,-2.002407777777778,1.9494414814814816,1.0396185185185185,2.030002222222222
0.24,-1.09102e-05,-2.93736e-05,-3.315883429672447e-05,-1.1021765510597301e-05,3.4132556262042393e-06,-7.815498053949905e-06,-1.7923678034682085e-05,-5.649634142581887e-06,-2.0526833333333334,1.0711022222222222,1.7102688888888888,-1.76443,1.07155,1.9072111111111112,-1.92557,1.045588888888889,-2.0043433333333334,-1.98196,1.04335,2.0303,-2.00613,1.077371111111111,1.6695411111111111,-1.8311233333333332,1.05141,1.95377,1.80069,1.06752,-2.00613,1.94571,1.04335,2.024041111111111
0.25,-1.62814e-05,-3.794009479768787e-05,-3.19097843930636e-05,-9.679952003853511e-06,-3.295537206165644e-07,3.919696300577769e-07,-1.280375163776514e-06,-8.734304797687867e-06,-2.0583507407407406,1.07155,1.7081792592592593,-1.7645792592592593,1.0676692592592594,1.9055692592592592,-1.92154,1.0432007407407407,-2.00211,-1.98196,1.03932,2.033882592592593,-2.0062792592592595,1.0757292592592593,1.6719292592592594,-1.83291,1.05141,1.953918888888889,1.8008388888888889,1.07155,-2.00211,1.9495907407407407,1.04335,2.026428888888889
0.26,-2.0806894230769243e-05,-2.9970758653846138e-05,-3.301630480769232e-05,-1.1345964423076893e-05,-5.103258173076953e-06,-3.947682884615379e-06,-1.51064e-06,-1.1675158653846136e-05,-2.05447,1.07155,1.71206,-1.7663703703703704,1.07155,1.90945,-1.92154,1.0414096296296296,-2.00211,-1.9840496296296295,1.0414096296296296,2.0201603703703706,-2.0080703703703704,1.07961,1.67581,-1.83291,1.05141,1.9598796296296295,1.80471,1.07155,-2.00211,1.9477996296296296,1.04335,2.0303
0.27,-1.76242e-05,-2.90379e-05,-3.18914e-05,-3.02129e-06,-1.09102e-05,-5.53902e-06,5.87472e-06,-5.03548e-06,-2.05447,1.07155,1.71206,-1.76443,1.06752,1.90542,-1.92154,1.04335,-2.00211,-1.99002,1.04335,2.01822,-2.00613,1.07961,1.67178,-1.83291,1.04738,1.95779,1.80471,1.07155,-2.00211,1.94974,1.04335,2.02628
0.28,-7.727523173076983e-06,-3.552752499999987e-05,-3.243205769230765e-05,-1.0275960288461494e-05,-1.2863043557690959e-06,-5.364716826923017e-06,-8.970251346153757e-06,-5.20333e-06,-2.05447,1.07155,1.7099703703703704,-1.76443,1.07155,1.90542,-1.9195996296296296,1.0454396296296296,-2.0041944444444444,-1.98599,1.0414096296296296,2.034180740740741,-2.0041944444444444,1.0775203703703704,1.67178,-1.8308255555555555,1.0493203703703704,1.9598796296296295,1.8026255555555555,1.06752,-2.00613,1.9477996296296296,1.03932,2.0282155555555557
0.29,-1.6835054527938456e-05,-2.5830315606936478e-05,-3.256889479768784e-05,4.053929788054146e-06,-1.1872324855490915e-06,-1.3522062427745912e-05,-4.326240616570173e-06,-4.756048593449034e-06,-2.05447,1.07155,1.71206,-1.7683107407407406,1.0676692592592594,1.90542,-1.91751,1.0472307407407406,-2.005981111111111,-1.9821092592592593,1.03932,2.03836,-2.005981111111111,1.07961,1.67178,-1.83291,1.05141,1.95779,1.8008388888888889,1.0636392592592594,-2.002258888888889,1.9418292592592594,1.03932,2.0303
0.3,-9.828725606936403e-06,-2.63523e-05,-3.6460481117533725e-05,-1.4341584393063597e-05,-7.348177803468201e-06,-3.3379065703275804e-06,-4.197202447013426e-06,-6.489846589595396e-06,-2.05447,1.07155,1.7102688888888888,-1.76846,1.07155,1.90945,-1.9251177777777777,1.045588888888889,-2.00613,-1.98599,1.041111111111111,2.032538888888889,-2.003896666666667,1.07558,1.66775,-1.8311233333333332,1.05141,1.959581111111111,1.80471,1.065728888888889,-2.0043433333333334,1.9492922222222222,1.041111111111111,2.0303
0.31,-2.0633210404624283e-05,-3.403653121387285e-05,-3.3713120809248565e-05,-1.3565074181117547e-05,-8.871430809248566e-06,-4.980176820809273e-06,-2.4870160115607073e-06,-1.5237431213872848e-05,-2.05447,1.0752814814814815,1.70803,-1.7647285185185184,1.07155,1.90945,-1.92959,1.04335,-2.00613,-1.9822585185185184,1.04335,2.0303,-2.002407777777778,1.0793114814814815,1.66775,-1.82889,1.05141,1.9580885185185184,1.8084414814814815,1.06349,-2.00211,1.95377,1.04335,2.0303
0.32,-2.1303948747591546e-05,-2.7521752023121357e-05,-2.8665331213872814e-05,-7.081040809248541e-06,-1.8777108092485419e-06,-4.432319595375729e-06,2.6745910789980085e-07,2.989919190751458e-06,-2.05045,1.07558,1.7096718518518519,-1.762041851851852,1.07155,1.911091851851852,-1.92959,1.045738148148148,-2.008518148148148,-1.98599,1.04738,2.0326881481481482,-1.99808,1.07961,1.66775,-1.834551851851852,1.05141,1.95779,1.807098148148148,1.065131851851852,-2.00613,1.95377,1.04335,2.0279177777777777
0.33,-2.441377803468203e-05,-2.2622731213872815e-05,-3.433536242774563e-05,-1.3407575144508749e-05,4.139956589595391e-06,-1.0312542023121426e-05,-7.554185780346777e-06,-8.822272427745626e-06,-2.05045,1.0791622222222221,1.7084777777777778,-1.76443,1.07155,1.91348,-1.9260166666666667,1.04335,-2.00613,-1.9788344444444443,1.04738,2.0338822222222226,-2.0016622222222225,1.07961,1.6713322222222222,-1.8333577777777779,1.054992222222222,1.95779,1.8082922222222222,1.0711022222222222,-2.00613,1.9573433333333332,1.04335,2.0303
0.34,-9.01339687861263e-07,-3.2214446242774544e-05,-3.388711560693644e-05,-6.932273872832457e-06,-3.7237273988439266e-06,1.112846312138737e-06,-5.663209595375705e-06,-1.0251455606936437e-05,-2.05045,1.07558,1.706541111111111,-1.76443,1.0730425925925926,1.9069125925925925,-1.92154,1.0463351851851852,-2.0086674074074073,-1.98196,1.04335,2.03433,-2.003598888888889,1.07961,1.67178,-1.8303788888888888,1.05141,1.95779,1.8032211111111112,1.0730425925925926,-2.00613,1.9522774074074074,1.0448425925925926,2.02628
0.35000000000000003,-1.532345838150294e-05,-3.088845433526029e-05,-3.526059325626205e-05,-8.077135587668443e-06,-4.14707161849706e-06,-5.502151946050059e-06,-5.77284986512599e-07,-1.1757535992292709e-05,-2.05045,1.07558,1.70401,-1.760997037037037,1.072147037037037,1.9060170370370368,-1.918107037037037,1.047977037037037,-2.00613,-1.98196,1.04335,2.03433,-2.009562962962963,1.076177037037037,1.675212962962963,-1.83291,1.054842962962963,1.95779,1.80069,1.068714074074074,-2.0027055555555555,1.946307037037037,1.043947037037037,2.0297044444444445
0.36,-2.2267966666666674e-05,-2.948553333333334e-05,-3.295439999999998e-05,-1.9078900000000167e-05,-1.02388e-05,-4.308129999999988e-06,-4.531930000000036e-06,5.091430000000012e-06,-2.05045,1.07155,1.70803,-1.7657733333333332,1.07558,1.90945,-1.92154,1.04738,-2.0074733333333334,-1.9873333333333332,1.0460366666666667,2.0303,-2.0088166666666667,1.0769233333333332,1.6731233333333333,-1.83291,1.05544,1.95779,1.80203,1.0688633333333333,-2.00345,1.9443666666666668,1.0460366666666667,2.0276199999999998
0.37,-1.3266535384615391e-05,-3.616248692307693e-05,-3.587585076923076e-05,-7.105189615384602e-06,-3.3259982307692335e-06,5.03548e-07,1.1233156923078167e-07,-1.0362754846153835e-05,-2.0537255555555554,1.07155,1.70803,-1.7651762962962962,1.0722962962962963,1.9127337037037038,-1.92154,1.04738,-2.013443703703704,-1.9867362962962962,1.0466337037037037,2.0303,-2.00613,1.07961,1.6725262962962963,-1.8361937037037037,1.0521562962962963,1.95779,1.80471,1.07155,-2.0028544444444445,1.9449637037037038,1.0400662962962963,2.0303
0.38,-8.174804797687865e-06,-2.9920494412331417e-05,-3.230822601156068e-05,-1.1072552023121355e-05,-6.328464797687864e-06,-6.88182e-06,-5.159991522157988e-06,-1.927514527938327e-07,-2.053278888888889,1.07558,1.70803,-1.76846,1.07558,1.90945,-1.92557,1.0461859259259259,-2.00613,-1.98196,1.0461859259259259,2.0314940740740743,-2.00211,1.082438888888889,1.670585925925926,-1.83291,1.05141,1.9606259259259258,1.80471,1.07155,-2.00613,1.94974,1.0421559259259259,2.0303
0.39,-2.2100530384615396e-05,-2.8553116153846154e-05,-3.452013923076921e-05,-1.031368692307693e-05,-3.5997169230769315e-06,-1.1387919076923408e-06,4.606171346153836e-06,-6.7882113461538355e-06,-2.05045,1.07558,1.7049033333333334,-1.76846,1.0724455555555557,1.90945,-1.92557,1.04335,-2.0092644444444443,-1.9788333333333334,1.04335,2.0374644444444443,-2.00211,1.0764755555555556,1.66775,-1.8297833333333333,1.0482755555555556,1.95779,1.8078444444444444,1.0684155555555557,-2.00613,1.9528744444444444,1.0424544444444444,2.0303
0.4,-8.063555317919001e-06,-2.421391040462426e-05,-3.447117630057804e-05,-9.480089190751483e-06,-7.410596011560647e-06,-5.520591213874401e-07,-6.297740809248518e-06,-9.10752040462426e-06,-2.05045,1.07558,1.70401,-1.76443,1.07155,1.91348,-1.92557,1.04738,-2.0082196296296297,-1.97391,1.0414096296296296,2.03836,-2.00613,1.07961,1.66775,-1.82889,1.0484248148148148,1.9607751851851851,1.80874,1.06752,-2.0091151851851854,1.9548122222222222,1.04335,2.0303
0.41000000000000003,-1.1705789595375705e-05,-3.7506059537572385e-05,-3.202233121387288e-05,-1.1457410404624295e-05,-6.596572023121474e-06,-4.656119595375705e-06,-1.05745e-05,-1.115857919075141e-05,-2.053427777777778,1.07558,1.7010248148148148,-1.76443,1.07155,1.91348,-1.9285477777777777,1.04738,-2.01419,-1.9768951851851853,1.04738,2.03836,-2.0031522222222224,1.07961,1.66775,-1.8318677777777779,1.0484248148148148,1.95779,1.80874,1.06752,-2.00613,1.95779,1.04335,2.0303
0.42,-1.3335588076923103e-05,-3.0417542307692294e-05,-3.57519e-05,-1.2103226153846138e-05,-7.926353461538467e-06,-5.576463461538466e-06,-7.21752e-06,-5.426690730769219e-06,-2.05447,1.0746844444444443,1.7049033333333334,-1.7604,1.0684155555555557,1.9143755555555557,-1.9286966666666665,1.045588888888889,-2.01016,-1.98196,1.04335,2.03836,-2.005236666666667,1.0764755555555556,1.66775,-1.8320166666666666,1.0482755555555556,1.9586855555555556,1.80874,1.0666244444444444,-2.00613,1.96182,1.04335,2.0271733333333333
0.43,-1.323518998073218e-05,-3.453360558766859e-05,-3.244470520231213e-05,-8.006956281310214e-06,-7.745971117533716e-06,-4.4452545279383265e-06,-8.22461e-06,-3.6179736801541474e-06,-2.05447,1.0743859259259259,1.7052011111111112,-1.7604,1.07155,1.9146740740740742,-1.9227340740740742,1.0421559259259259,-2.01016,-1.98196,1.0461859259259259,2.03836,-2.00211,1.07961,1.670585925925926,-1.82889,1.048574074074074,1.96182,1.8059040740740742,1.066325925925926,-2.00613,1.958984074074074,1.04335,2.0274711111111112
0.44,-2.7819050769230758e-05,-3.546526384615383e-05,-3.23949e-05,-1.15816e-05,-1.9767465384615344e-06,-7.129715615384593e-06,1.597150569230754e-06,-8.659728846153845e-06,-2.0577537037037037,1.07155,1.70803,-1.76443,1.07155,1.9127337037037038,-1.9222862962962963,1.04335,-2.01016,-1.9812155555555555,1.04335,2.03433,-2.0028544444444445,1.07558,1.6725262962962963,-1.8321655555555556,1.05141,1.9585362962962962,1.80471,1.06752,-2.00613,1.95377,1.0440962962962963,2.0229962962962964
0.45,-2.10371333333334e-05,-3.19472999999999e-05,-3.23949e-05,-1.1693499999999987e-05,3.2450866666666066e-06,-1.0126936666666696e-05,1.342789999999982e-06,-4.699779999999982e-06,-2.05447,1.0742366666666667,1.70803,-1.7671166666666667,1.0742366666666667,1.90945,-1.92557,1.0460366666666667,-2.01016,-1.98062,1.0460366666666667,2.0370166666666667,-2.0088166666666667,1.0782666666666667,1.6731233333333333,-1.82889,1.0540966666666667,1.9591333333333332,1.80471,1.06752,-2.00345,1.95377,1.0446933333333333,2.02896
0.46,-1.723934161849713e-05,-2.8268183236994264e-05,-3.4097979190751434e-05,-1.0222353140655188e-05,-3.704969595375717e-06,4.482771618497132e-06,-2.542319190751434e-06,-7.53219271676339e-07,-2.057902962962963,1.07961,1.703412962962963,-1.76443,1.07155,1.90945,-1.9289944444444445,1.04738,-2.009562962962963,-1.9785355555555555,1.04738,2.037762962962963,-2.0055344444444447,1.07961,1.67178,-1.8323144444444444,1.05141,1.9571944444444445,1.8018825925925925,1.068117037037037,-2.00211,1.946307037037037,1.042752962962963,2.02628
0.47000000000000003,-4.625072196531833e-06,-3.117628959537578e-05,-3.447119479768789e-05,-1.0114612254335204e-05,-1.3533705202312111e-05,-4.19623e-06,-1.2738115606936334e-05,-7.6279278034681666e-06,-2.05447,1.0770725925925926,1.7025174074074074,-1.7669674074074073,1.0740874074074074,1.9119874074074075,-1.92557,1.04738,-2.0086674074074073,-1.9844974074074073,1.04738,2.03433,-2.0046411111111113,1.0770725925925926,1.67178,-1.82889,1.0539474074074073,1.95377,1.8036714814814814,1.0690125925925926,-2.00211,1.9472025925925927,1.03932,2.02628
0.48,-1.3688914450867056e-05,-3.4391608092485494e-05,-3.582658554913294e-05,-6.231766184970976e-06,-5.147056589595391e-06,-3.0028556069364065e-06,-3.52483e-06,-6.918688786127186e-06,-2.0508966666666666,1.07155,1.70803,-1.76846,1.0719977777777778,1.90945,-1.9251222222222222,1.04335,-2.0097122222222223,-1.989572222222222,1.04335,2.0338822222222226,-2.0056833333333337,1.07558,1.67581,-1.83291,1.05141,1.95377,1.80069,1.0679677777777778,-2.00211,1.94571,1.0429022222222222,2.02628
0.49,-2.3592962427745626e-05,-2.8379451252408453e-05,-3.4781668786127184e-05,-1.4707958381502917e-05,-1.0089387360308295e-05,-1.58631928709051e-06,8.578744393063593e-06,-7.98852040462427e-06,-2.0496996296296297,1.07155,1.710418148148148,-1.766071851851852,1.07558,1.90945,-1.92154,1.045738148148148,-2.00613,-1.98599,1.04335,2.0303,-2.00211,1.07558,1.67581,-1.83291,1.05141,1.956152222222222,1.7983018518518519,1.07155,-1.999721851851852,1.94571,1.041708148148148,2.02628
0.5,-1.846954662813102e-05,-3.540580269749526e-05,-3.258123256262041e-05,-6.061004393063575e-06,-4.818471618497132e-06,-6.558409595375717e-06,-4.681345606936424e-06,-2.5730428131020945e-06,-2.050747777777778,1.0718485185185185,1.7083285185185184,-1.7606985185185184,1.07558,1.90945,-1.92154,1.04335,-2.00613,-1.9782377777777778,1.04335,2.0305985185185187,-2.00613,1.07961,1.675212962962963,-1.83291,1.05141,1.9574922222222222,1.80471,1.07155,-2.00211,1.94974,1.0396185185185185,2.030002222222222
0.51,-1.5647181117533715e-05,-2.996867514450862e-05,-3.1872268786127154e-05,-1.0984584393063577e-05,-1.2365546820809268e-05,-3.413255626204248e-06,-5.4274456262042485e-06,-8.188390250481727e-06,-2.0567088888888887,1.073341111111111,1.71206,-1.762191111111111,1.073341111111111,1.90945,-1.92154,1.04335,-2.00613,-1.9797266666666666,1.04335,2.03433,-2.003896666666667,1.0818433333333333,1.66775,-1.835148888888889,1.05141,1.9560033333333333,1.806948888888889,1.069311111111111,-2.00211,1.94974,1.041111111111111,2.028513333333333
0.52,-2.0956620809248562e-05,-3.029372851637765e-05,-3.169892080924856e-05,-1.0064810385356457e-05,3.5413280154141955e-07,-1.1258189595375718e-05,-1.027567360308284e-05,-6.29741739884393e-06,-2.05045,1.0716992592592594,1.71206,-1.76443,1.0714007407407407,1.90945,-1.92557,1.04335,-2.01016,-1.98196,1.04335,2.03433,-2.00211,1.0794607407407406,1.6678992592592594,-1.83291,1.05141,1.9579392592592593,1.8085907407407407,1.06752,-2.00211,1.95377,1.03932,2.030151111111111
0.53,-1.1555758076923988e-06,-2.8410089423076915e-05,-3.50805e-05,-7.1868524999999465e-06,-5.164582019230162e-07,5.03548e-07,-2.9276813461538913e-06,-4.61908288461537e-06,-2.0525344444444444,1.07558,1.7099703703703704,-1.7623403703703704,1.0696096296296296,1.90945,-1.9276544444444443,1.0454396296296296,-2.0080703703703704,-1.9798755555555556,1.04335,2.03433,-2.00211,1.0776696296296295,1.67178,-1.83291,1.05141,1.96182,1.80471,1.06752,-2.00211,1.95377,1.0414096296296296,2.02628
0.54,-1.07424e-05,-3.54162e-05,-3.23949e-05,-1.49386e-05,-1.67849e-07,-6.21042e-06,-4.69978e-06,-6.21042e-06,-2.05447,1.07558,1.70803,-1.76443,1.07155,1.90945,-1.92959,1.04335,-2.00613,-1.97391,1.04335,2.03433,-2.00211,1.07558,1.67178,-1.82889,1.04738,1.96182,1.80471,1.07155,-2.00613,1.94974,1.04335,2.02628
0.55,-2.6053757692307685e-05,-2.979645288461539e-05,-3.4234794230769224e-05,-1.0561591057692293e-05,6.77866923076751e-08,-2.679134230769224e-06,-1.67849e-07,-3.3004946153846e-06,-2.0564103703703704,1.07558,1.7099703703703704,-1.7624896296296295,1.0694603703703705,1.90945,-1.92557,1.04335,-2.00613,-1.9798755555555556,1.0414096296296296,2.03433,-2.00613,1.0815455555555555,1.6738696296296296,-1.8269496296296295,1.05141,1.96182,1.80874,1.0694603703703705,-2.00613,1.95377,1.04335,2.0303
0.56,-1.0151828516377632e-05,-2.918731560693632e-05,-3.23949e-05,-1.2650147976878937e-05,-6.968817398843947e-06,1.555599595375072e-07,-2.088897803468159e-06,-1.1836423314065526e-05,-2.054619259259259,1.0716992592592594,1.7081792592592593,-1.7604,1.07155,1.90945,-1.9216892592592594,1.04335,-2.00613,-1.98196,1.0470814814814815,2.03433,-2.00613,1.079758888888889,1.6678992592592594,-1.8287407407407406,1.05141,1.96182,1.8048592592592594,1.07155,-2.00613,1.95377,1.04335,2.0303
0.5700000000000001,-2.8589653179190684e-05,-3.00841437379578e-05,-3.274874990366083e-05,-3.1147556069364385e-06,-1.39315e-05,-8.075843429672491e-06,-2.3689712138728765e-06,-6.228530982658904e-06,-2.05045,1.07155,1.7102688888888888,-1.7604,1.07155,1.90945,-1.923778888888889,1.045588888888889,-2.007921111111111,-1.98196,1.045141111111111,2.03433,-2.00613,1.07961,1.6655111111111112,-1.8293322222222221,1.05141,1.96182,1.80471,1.06752,-2.003896666666667,1.9560033333333333,1.04335,2.0303
0.58,-2.093204161849714e-05,-2.9807616763005727e-05,-3.0032710404624287e-05,-1.558542080924857e-05,-5.893154393063574e-06,-5.749883583815005e-06,-8.709725606936426e-06,-1.051919718689791e-05,-2.054172222222222,1.0752814814814815,1.7117614814814814,-1.7604,1.07155,1.9131814814814816,-1.9178085185185185,1.04335,-2.006428518518519,-1.98196,1.04738,2.03433,-2.00613,1.0833322222222224,1.66775,-1.8285914814814814,1.0551414814814815,1.9580885185185184,1.80471,1.0712514814814815,-2.00613,1.95377,1.04335,2.026577777777778
0.59,-4.4323195953757395e-06,-4.328470481695589e-05,-3.8872810404624256e-05,-7.75243784200382e-06,4.039378921002098e-07,-3.7240508092485205e-06,-6.415138786127219e-06,-9.90311e-06,-2.0528322222222224,1.0731918518518517,1.70803,-1.7627881481481482,1.0739381481481483,1.9118381481481483,-1.92557,1.0449918518518517,-2.0077718518518517,-1.9876318518518516,1.04335,2.03433,-2.0085181481481484,1.0812477777777778,1.6693918518518518,-1.8272481481481482,1.05141,1.9601781481481482,1.80471,1.0699081481481483,-2.0085181481481484,1.9521281481481483,1.0409618518518517,2.0303
0.6,-1.6802391907514416e-05,-2.7993931213872846e-05,-3.470793121387284e-05,-1.2922459537572199e-05,-3.5442401734104262e-06,-3.52483e-06,-1.6037821965317889e-06,-8.802867803468211e-06,-2.05045,1.07558,1.711612222222222,-1.7604,1.07155,1.90945,-1.92557,1.0437977777777778,-2.006577777777778,-1.99002,1.04335,2.03433,-2.0097122222222223,1.0800566666666667,1.668197777777778,-1.82486,1.054992222222222,1.961372222222222,1.80471,1.06752,-2.0097122222222223,1.94974,1.0397677777777778,2.0303
0.61,-1.6026179190751435e-05,-2.865858959537572e-05,-3.1176289595375716e-05,-1.640558959537572e-05,-1.2370347976878592e-06,3.18914e-06,-1.29244e-05,-6.732404393063577e-06,-2.05045,1.07558,1.71206,-1.7618925925925926,1.0730425925925926,1.90945,-1.92959,1.04335,-2.00613,-1.9874825925925925,1.0408125925925926,2.03433,-2.01419,1.0821411111111112,1.67178,-1.8278414814814814,1.0539474074074073,1.95779,1.80471,1.0700574074074074,-2.003598888888889,1.956301111111111,1.0408125925925926,2.0303
0.62,-1.2625565125240835e-05,-3.2656862427745694e-05,-3.081471676300575e-05,-2.5956804431598396e-06,-3.52483e-06,-5.141882023121408e-06,8.093628786127155e-06,-8.17545235067439e-06,-2.05045,1.07558,1.7086270370370369,-1.76443,1.072147037037037,1.90945,-1.9227325925925927,1.046782962962963,-2.00613,-1.9865870370370369,1.04335,2.030897037037037,-2.010757037037037,1.07961,1.668347037037037,-1.83291,1.05141,1.961222962962963,1.80471,1.0743859259259259,-2.00613,1.95377,1.046782962962963,2.0303
0.63,-8.11271e-06,-4.02279e-05,-3.53043e-05,-6.26637e-06,-2.0757400000000002e-05,-1.67849e-07,-5.706873333333334e-06,-1.67849e-07,-2.05045,1.07558,1.7147466666666666,-1.7617433333333332,1.07155,1.9081066666666666,-1.9242266666666668,1.0500666666666667,-2.00613,-1.98062,1.0446933333333333,2.02628,-2.00613,1.07961,1.67178,-1.83023,1.05141,1.9591333333333332,1.8060533333333333,1.07155,-2.00613,1.95377,1.04335,2.02896
0.64,-1.4932123846153839e-05,-3.413537538461538e-05,-3.1785475384615375e-05,-1.171846230769231e-05,-1.9832023076923104e-06,-5.1155256153845934e-06,-8.00124630769232e-06,-4.388611923076914e-06,-2.05045,1.0722962962962963,1.71206,-1.76443,1.07155,1.9087037037037038,-1.92154,1.04738,-2.0028544444444445,-1.9812155555555555,1.04738,2.0295555555555556,-2.00613,1.07961,1.6750637037037037,-1.83291,1.05141,1.9585362962962962,1.80874,1.0682662962962963,-2.00613,1.95377,1.04335,2.0295555555555556
0.65,-2.489793082851634e-05,-3.713156878612722e-05,-3.353847919075148e-05,-6.9251569942196744e-06,-9.388555144508499e-07,-8.22461e-06,-8.6469854720617e-06,-5.246666994219674e-06,-2.05447,1.0743859259259259,1.7108659259259258,-1.7632359259259258,1.07558,1.908255925925926,-1.920345925925926,1.0502159259259258,-2.004938888888889,-1.983154074074074,1.04335,2.0314940740740743,-2.00613,1.080801111111111,1.66775,-1.8341040740740742,1.0502159259259258,1.95377,1.807545925925926,1.07155,-2.007324074074074,1.9565988888888888,1.04335,2.02628
0.66,-2.0160026153846138e-05,-3.5491086923076934e-05,-3.153697269230769e-05,3.4886854615384947e-06,-2.0329117307692326e-06,-4.36408e-06,-9.141322538461622e-07,-1.8333043461538468e-05,-2.05447,1.07155,1.7111644444444445,-1.7635344444444445,1.0787144444444445,1.90542,-1.91751,1.04738,-2.00211,-1.9828555555555554,1.04335,2.0311955555555556,-2.00613,1.08363,1.66775,-1.83694,1.04738,1.9568966666666667,1.80471,1.07155,-2.007025555555556,1.95377,1.0402155555555554,2.02628
0.67,-1.6437575722543127e-05,-3.0323506358381874e-05,-3.317208670520229e-05,-1.2712889595375764e-05,-1.561094982658754e-06,-1.6348295953757636e-06,2.6923816184969456e-06,-6.067796011560591e-06,-2.05447,1.07155,1.7090748148148147,-1.76443,1.0745351851851852,1.90945,-1.9185548148148148,1.0443948148148148,-2.00211,-1.9789822222222222,1.0423051851851852,2.0292577777777776,-2.00613,1.0785651851851852,1.67178,-1.83291,1.05141,1.9607751851851851,1.80069,1.0685648148148148,-2.005087777777778,1.9527251851851852,1.0403648148148148,2.0303
0.68,-2.052131040462431e-05,-2.9815086705202325e-05,-3.424804161849723e-05,-6.2288583815055e-07,-8.125650115607045e-06,-7.727855317919198e-06,-1.66171e-05,-5.097574797687846e-06,-2.05447,1.07155,1.7150451851851851,-1.76443,1.07155,1.9064648148148147,-1.92154,1.04738,-1.9991248148148149,-1.98196,1.03932,2.02628,-2.00613,1.07558,1.67178,-1.829932222222222,1.05141,1.95779,1.7977048148148147,1.0685648148148148,-2.00211,1.94974,1.0403648148148148,2.0273222222222222
0.6900000000000001,-3.152985461537921e-06,-3.317863038461518e-05,-3.1070827307692275e-05,-1.3017313076923211e-05,-8.168445923077024e-06,-3.748845192307591e-06,-4.4563986153850535e-06,-6.907644153842777e-07,-2.0553655555555554,1.07155,1.7129555555555556,-1.76443,1.07155,1.9063155555555555,-1.9246744444444444,1.0442455555555556,-2.00211,-1.98196,1.04335,2.02628,-2.01016,1.07558,1.67178,-1.8320166666666666,1.04738,1.95377,1.8038166666666666,1.0706544444444444,-1.9989755555555557,1.94974,1.04335,2.02628
0.7000000000000001,-8.846204797687799e-06,-2.3480415606936607e-05,-3.69452843930634e-05,-9.082294393063394e-06,7.774754258192302e-07,-4.282905472061341e-06,2.3812593256264572e-06,-7.774754258192302e-07,-2.0585,1.07155,1.71609,-1.7672659259259258,1.07155,1.90945,-1.9243759259259259,1.04738,-2.00211,-1.9847959259259258,1.04335,2.02628,-2.007324074074074,1.07558,1.674615925925926,-1.831718888888889,1.053051851851852,1.95377,1.80069,1.0703559259259259,-2.00211,1.94974,1.04335,2.023444074074074
0.71,-7.429265153846048e-06,-3.5888762307692284e-05,-3.179838692307684e-05,5.141350538461486e-06,2.2569269230768436e-06,4.942512846153767e-06,3.9844848461539525e-06,-5.6074511538461404e-06,-2.0577537037037037,1.07155,1.71609,-1.7717437037037036,1.07155,1.9087037037037038,-1.9222862962962963,1.0440962962962963,-2.00211,-1.9867362962962962,1.04335,2.0303,-2.00613,1.07961,1.67581,-1.8321655555555556,1.05544,1.95377,1.7999437037037036,1.06752,-1.9988262962962964,1.9504862962962963,1.0440962962962963,2.02628
0.72,-2.85903e-05,-3.4744766666666666e-05,-3.47448e-05,-8.056763333333332e-06,-4.19623e-06,-4.4200300000000004e-06,-1.28684e-06,-1.0070973333333333e-05,-2.05447,1.0742366666666667,1.7134033333333332,-1.7657733333333332,1.07155,1.9081066666666666,-1.9228833333333333,1.04738,-1.9994233333333333,-1.9873333333333332,1.04335,2.0303,-2.00613,1.07961,1.67581,-1.8262033333333332,1.0527533333333332,1.95377,1.79666,1.06752,-2.00211,1.9510833333333333,1.0446933333333333,2.02628
0.73,-1.885251271676293e-05,-3.0732940269749454e-05,-3.0069579190751437e-05,-1.1589639653179244e-05,-9.94810111753376e-07,-7.900878381503057e-07,-2.2680664354527648e-06,-9.481382832369971e-06,-2.05447,1.07155,1.7126570370370369,-1.76846,1.070952962962963,1.90945,-1.92154,1.047977037037037,-1.9992725925925927,-1.98599,1.039917037037037,2.0303,-2.0055344444444447,1.07961,1.672377037037037,-1.82889,1.052007037037037,1.95377,1.80069,1.06752,-2.00211,1.94974,1.042752962962963,2.02628
0.74,-3.499612138728247e-06,-2.7875572254335298e-05,-3.0579638150289014e-05,-5.390578323699583e-06,6.209442774564938e-08,1.0255292832369481e-06,-1.517533641618508e-05,-9.094907398843923e-06,-2.05447,1.0740874074074074,1.7135525925925925,-1.76846,1.06752,1.9069125925925925,-1.9240774074074074,1.0463351851851852,-2.0086674074074073,-1.98599,1.04335,2.0303,-2.00211,1.0770725925925926,1.67581,-1.82889,1.0529025925925926,1.956301111111111,1.8032211111111112,1.0700574074074074,-2.00211,1.9522774074074074,1.0418574074074074,2.02628
0.75,-1.989936994219653e-05,-3.045348959537567e-05,-3.3122601156069374e-05,-6.920624797687905e-06,-1.0295101156069373e-05,-4.19623e-06,8.586490635838369e-07,-5.090777630057785e-06,-2.0540233333333333,1.0791622222222221,1.7075833333333332,-1.768012222222222,1.07155,1.9090022222222223,-1.92154,1.04335,-2.01016,-1.985542222222222,1.04335,2.0294055555555555,-2.00211,1.07558,1.67581,-1.8293366666666666,1.05141,1.95377,1.80069,1.0711022222222222,-2.00211,1.9533222222222222,1.03932,2.02628
0.76,-2.514597919075148e-05,-2.933673121387278e-05,-3.753001040462426e-05,-8.372088111753578e-06,-1.1009810404624259e-05,-3.79779134874766e-06,4.755083179190829e-06,-1.3114209710983003e-06,-2.05045,1.07558,1.706392222222222,-1.76443,1.069161851851852,1.9078081481481481,-1.92154,1.04335,-2.01016,-1.9795777777777779,1.040961851851852,2.02702037037037,-2.00211,1.07558,1.673421851851852,-1.8305277777777778,1.05141,1.95377,1.80069,1.06752,-2.0044922222222223,1.952128148148148,1.041708148148148,2.02628
0.77,-1.3278532562620415e-05,-2.8378789595375715e-05,-3.403653121387285e-05,-1.3634561078998145e-05,-1.2118087861271474e-06,-6.88182e-06,2.1943295953757156e-06,-4.525785202312142e-06,-2.0467185185185186,1.0793114814814815,1.70803,-1.7606985185185184,1.07155,1.9137785185185185,-1.9178085185185185,1.0436485185185185,-2.00613,-1.9782377777777778,1.03932,2.030897037037037,-2.00613,1.07961,1.67581,-1.8326122222222223,1.0511114814814815,1.95779,1.80069,1.06752,-2.00613,1.95377,1.0396185185185185,2.026577777777778
0.78,-8.057732447013515e-06,-3.0977715606936425e-05,-3.4147784393063574e-05,-2.947868053949938e-06,-5.949104393063578e-06,-6.21042e-06,-3.7479831791907328e-06,-5.018333680154186e-06,-2.0526833333333334,1.07558,1.7102688888888888,-1.76443,1.07155,1.91751,-1.9193011111111111,1.045141111111111,-2.003896666666667,-1.98196,1.0437977777777778,2.033882222222222,-2.00613,1.07961,1.67581,-1.8311233333333332,1.04738,1.95779,1.80069,1.06752,-2.00613,1.95377,1.04335,2.0280666666666667
0.79,-2.062092080924871e-05,-2.4867223506744113e-05,-3.343886878612693e-05,-7.428378400770439e-06,-2.368324393063466e-06,-1.272582601156089e-05,-1.5485163583814753e-05,-1.0978738921002025e-05,-2.05447,1.07155,1.71206,-1.76443,1.07155,1.9133307407407407,-1.9176592592592594,1.04738,-2.0024081481481484,-1.98196,1.04738,2.02225,-2.01016,1.07961,1.6756607407407407,-1.83291,1.05141,1.95377,1.80471,1.0714007407407407,-2.00211,1.94571,1.04335,2.026428888888889
0.8,-1.6828489423076914e-05,-3.3550482692307784e-05,-3.117641057692309e-05,-1.4062216346153823e-05,-1.0101654519230822e-05,2.7791960576922622e-06,1.672034230769261e-06,-6.508999326923054e-06,-2.0523855555555555,1.0736396296296296,1.7099703703703704,-1.7665196296296295,1.07155,1.9115396296296296,-1.92154,1.0494696296296295,-2.01016,-1.9798755555555556,1.0452903703703704,2.0243396296296297,-2.0080703703703704,1.07961,1.67178,-1.83291,1.05141,1.95377,1.80471,1.0696096296296296,-2.00211,1.9477996296296296,1.04335,2.026125925925926
0.81,-1.42672e-05,-3.13878e-05,-3.17235e-05,-3.86053e-06,-1.67849e-07,8.39246e-07,4.86763e-06,-8.39246e-07,-2.05447,1.07558,1.70803,-1.76443,1.07155,1.91348,-1.92557,1.04738,-2.00613,-1.97391,1.04335,2.03433,-2.01016,1.07558,1.67178,-1.82889,1.05544,1.95377,1.80069,1.07155,-1.99808,1.94571,1.04335,2.02628
0.8200000000000001,-1.29244e-05,-3.729965769230761e-05,-3.898458942307695e-05,-1.047443817307664e-05,-5.53902e-06,-1.0779483653846068e-05,-6.44605817307664e-06,-3.686226826922964e-06,-2.0485096296296295,1.07558,1.7060944444444444,-1.7623403703703704,1.0696096296296296,1.91348,-1.9276544444444443,1.04738,-2.00613,-1.977785925925926,1.0412603703703704,2.03433,-2.01016,1.0775203703703704,1.67178,-1.8308255555555555,1.0533503703703704,1.95779,1.7986003703703703,1.0694603703703705,-2.00016962962963,1.94571,1.0412603703703704,2.0243396296296297
0.8300000000000001,-1.608282601156053e-05,-3.3326321965318405e-05,-3.07164e-05,-1.0586789595375788e-05,-3.5872533911366878e-06,-6.88182e-06,-1.6969243930636813e-06,-4.171650809248425e-06,-2.0503007407407408,1.0794607407407406,1.707881111111111,-1.7605492592592593,1.06752,1.9095992592592594,-1.92557,1.0434992592592593,-2.00613,-1.98196,1.04335,2.03433,-2.01016,1.07961,1.6756607407407407,-1.8406714814814815,1.0515592592592593,1.95779,1.80069,1.0676692592592594,-2.0019607407407407,1.9495907407407407,1.0472307407407406,2.0261307407407405
0.84,-1.3075109248554957e-05,-3.4463394026974906e-05,-3.179788439306358e-05,-1.4043065510597294e-05,-1.9207243930635774e-06,3.450447822736037e-06,-6.54612e-06,-6.806465375722521e-06,-2.0522366666666665,1.0778188888888889,1.70803,-1.762191111111111,1.073788888888889,1.90945,-1.923778888888889,1.045141111111111,-2.007921111111111,-1.987781111111111,1.04738,2.028513333333333,-2.0043433333333334,1.07961,1.6735711111111111,-1.83291,1.05141,1.95779,1.80069,1.069758888888889,-2.003896666666667,1.94974,1.045588888888889,2.028513333333333
0.85,-2.075799865125244e-05,-2.7645941618497137e-05,-3.1872963776493267e-05,-1.5634579190751434e-05,-8.22461e-06,-1.2425327745664368e-06,-1.2314447976878579e-05,-6.8326616184971365e-06,-2.050747777777778,1.07558,1.7117614814814814,-1.76443,1.07155,1.90945,-1.92154,1.0511114814814815,-2.01016,-1.9862885185185184,1.04738,2.030002222222222,-2.0058322222222222,1.07961,1.67581,-1.8291877777777776,1.0551414814814815,1.95779,1.80069,1.06752,-2.00613,1.9534714814814815,1.0470814814814815,2.02628
0.86,-9.73526e-06,-2.7566094412331228e-05,-3.729392080924852e-05,9.50466838150296e-06,-5.806480404624261e-06,-3.52483e-06,-4.408061618497797e-07,-2.3812608092485203e-06,-2.048808148148148,1.073191851851852,1.7137018518518519,-1.76443,1.0722962962962963,1.9118381481481481,-1.92154,1.045738148148148,-2.0044922222222223,-1.988378148148148,1.04335,2.028662222222222,-2.007771851851852,1.07961,1.67581,-1.82889,1.053051851851852,1.9594318518518519,1.8023277777777778,1.07155,-2.003747777777778,1.95377,1.04738,2.023891851851852
0.87,-3.6373823699422153e-06,-3.019152716762998e-05,-3.716938554913295e-05,-1.2625568786127154e-05,-3.3016823699422153e-06,-4.868595780346849e-06,-8.004360924855054e-07,-1.2084152023121359e-05,-2.04642,1.0719977777777778,1.71609,-1.768012222222222,1.0711022222222222,1.90945,-1.9251222222222222,1.04335,-2.00211,-1.989572222222222,1.04335,2.02628,-2.0030044444444446,1.07961,1.6722277777777779,-1.8253077777777778,1.0518577777777778,1.9582377777777777,1.80471,1.0679677777777778,-2.0025566666666665,1.95377,1.0437977777777778,2.02628
0.88,-2.2149339884393048e-05,-2.763300520231214e-05,-3.1511989595375714e-05,5.180040739884438e-06,-9.63434485549129e-07,1.2991295953757185e-06,-7.5590395375722425e-06,-8.702941387283227e-07,-2.052981111111111,1.0740874074074074,1.71609,-1.76443,1.0690125925925926,1.90542,-1.92154,1.04335,-2.0006174074074075,-1.99002,1.0458874074074074,2.02628,-2.00613,1.0781174074074074,1.67178,-1.82889,1.0529025925925926,1.95779,1.80471,1.0660274074074074,-2.00211,1.956301111111111,1.04335,2.0303
0.89,-1.2388181888246581e-05,-3.249321676300575e-05,-3.3893214065510607e-05,-1.4664344315992273e-05,-3.885109190751437e-06,-1.7072727938342303e-06,-3.2628768400770465e-06,9.12983132947952e-07,-2.0538744444444443,1.068117037037037,1.71609,-1.76443,1.07155,1.90542,-1.92154,1.046782962962963,-1.99808,-1.99002,1.039917037037037,2.02628,-2.00613,1.079012962962963,1.67178,-1.82889,1.05544,1.9543655555555555,1.80471,1.066922962962963,-2.0055344444444447,1.95377,1.04335,2.0268755555555553
0.9,-2.84784e-05,-3.5528099999999996e-05,-3.138783333333334e-05,-8.728160000000001e-06,-2.96534e-06,-2.7415399999999998e-06,2.4058399999999997e-06,-9.791210000000001e-06,-2.05447,1.0648333333333333,1.71609,-1.76443,1.0728933333333333,1.9014,-1.9161666666666668,1.0460366666666667,-1.99808,-1.9833066666666666,1.0446933333333333,2.0235933333333334,-2.00613,1.07558,1.6731233333333333,-1.82889,1.05544,1.95511,1.80069,1.0688633333333333,-2.00613,1.9524266666666668,1.04335,2.0235933333333334
0.91,-5.613912846153767e-06,-2.696820076923065e-05,-3.4806775384615434e-05,-9.306596923076844e-06,-8.200083999999908e-06,-2.3189023076922812e-06,-9.269153461538421e-06,-9.841130538461486e-06,-2.0577537037037037,1.0708037037037037,1.71609,-1.76443,1.07558,1.9014,-1.9167637037037037,1.0466337037037037,-1.99808,-1.97794,1.0440962962962963,2.0247874074074073,-2.00613,1.07558,1.6725262962962963,-1.82889,1.0521562962962963,1.9545144444444444,1.80069,1.0682662962962963,-2.0028544444444445,1.94974,1.04335,2.0295555555555556
0.92,-1.3769147976878699e-05,-3.053011560693639e-05,-3.165531040462426e-05,-7.2239867244701045e-06,-5.962362736030756e-06,-8.149903680154154e-06,-4.960772196531805e-06,-7.366934123314039e-06,-2.05447,1.07155,1.71609,-1.76443,1.0727440740740741,1.8985640740740741,-1.9146740740740742,1.04738,-1.99808,-1.97391,1.03932,2.0303,-2.00613,1.07961,1.674615925925926,-1.8276959259259258,1.05141,1.958984074074074,1.80069,1.06752,-2.0033011111111114,1.9525759259259259,1.04335,2.02628
0.93,-2.4934613076923066e-05,-3.2991413076923066e-05,-3.649749692307691e-05,-8.35566211538463e-06,1.4731965384615344e-06,-3.2265823461538503e-06,-1.6604138461538627e-06,-4.19623e-06,-2.05447,1.0684155555555555,1.71609,-1.76443,1.0724455555555554,1.9014,-1.9206444444444446,1.04738,-1.99808,-1.9770444444444446,1.03932,2.0303,-2.0030033333333335,1.07961,1.6749144444444446,-1.82486,1.0545444444444445,1.9586855555555553,1.8038166666666666,1.06752,-2.00613,1.9528744444444446,1.04335,2.02628
0.9400000000000001,-2.4425420809248474e-05,-2.9249410404624236e-05,-3.751772080924847e-05,-1.0618210404624237e-05,-4.295193583815173e-06,-6.385061618496945e-06,-1.12459e-05,-5.166454913294675e-06,-2.05447,1.07155,1.71609,-1.76443,1.07155,1.9024422222222221,-1.92154,1.0443948148148148,-1.9991248148148149,-1.9800270370370372,1.03932,2.0292577777777776,-2.00613,1.07961,1.67178,-1.82889,1.0543951851851852,1.9548122222222222,1.80471,1.06752,-2.005087777777778,1.95377,1.0423051851851852,2.025235185185185
0.9500000000000001,-1.0698689595375692e-05,-3.184768959537569e-05,-2.8118120809248616e-05,-5.8931543930635374e-06,-1.0661820809248615e-05,-2.6050608092486163e-06,5.404144566473067e-07,-8.958104797687846e-06,-2.05447,1.07155,1.71609,-1.7674151851851851,1.07155,1.90542,-1.9245251851851852,1.04738,-2.00211,-1.98599,1.0423051851851852,2.02628,-2.00613,1.07961,1.67178,-1.82889,1.05141,1.95779,1.801732222222222,1.0705051851851852,-2.00211,1.9567477777777778,1.03932,2.0252351851851853
0.96,-4.046457269230753e-06,-3.6273526153846135e-05,-3.713214346153847e-05,-1.1387919076923406e-06,-4.569373461538466e-06,-7.852765461538495e-06,4.69978e-06,-1.1674513076923069e-05,-2.05447,1.07155,1.71609,-1.7675644444444445,1.07155,1.9085544444444444,-1.92557,1.0442455555555554,-2.0030033333333335,-1.9868855555555553,1.0464844444444446,2.0303,-2.00613,1.07961,1.6726755555555555,-1.82889,1.05141,1.9546633333333332,1.80069,1.06752,-2.005236666666667,1.9528744444444446,1.03932,2.02628
0.97,-1.2750074373795791e-05,-3.510637283236982e-05,-3.326552080924852e-05,-1.181768959537574e-05,-1.3741608092485207e-06,-2.1322347976878695e-06,-3.33855412331404e-06,-4.021913275529895e-06,-2.05447,1.0743859259259259,1.71609,-1.76443,1.07155,1.908255925925926,-1.9283988888888888,1.04738,-2.00613,-1.99002,1.0461859259259259,2.0303,-2.0033011111111114,1.07961,1.67581,-1.82889,1.05141,1.95779,1.80069,1.06752,-2.00211,1.9525759259259259,1.03932,2.02628
0.98,-1.869327538461538e-05,-3.1164460000000014e-05,-3.229551076923077e-05,-1.6604174000000166e-06,-3.400885153846165e-06,4.010309769230786e-06,-1.171198615384615e-05,-4.388611923076913e-06,-2.05447,1.07155,1.71206,-1.7677137037037036,1.07155,1.9101962962962964,-1.92557,1.04738,-2.00211,-1.99002,1.0440962962962963,2.0303,-2.0053855555555558,1.0763262962962963,1.6725262962962963,-1.82889,1.0521562962962963,1.9570455555555555,1.80069,1.0708037037037037,-2.0053855555555558,1.9504862962962963,1.0426037037037037,2.02628
0.99,-2.1037133333333332e-05,-3.23949e-05,-2.90379e-05,-7.777013333333334e-06,-1.0630420000000001e-06,5.594966666666665e-08,-2.965333333333333e-06,-6.88182e-06,-2.05179,1.0742366666666667,1.71206,-1.7671166666666667,1.0742366666666667,1.91348,-1.9228833333333333,1.04738,-2.00211,-1.99002,1.0446933333333333,2.0276199999999998,-2.00211,1.0769233333333332,1.6731233333333333,-1.82889,1.0527533333333332,1.95377,1.80069,1.0702066666666668,-2.00211,1.9510833333333333,1.03932,2.02896
1.0,-5.7967543570060195e-06,-3.096124452975073e-05,-3.4124947024952064e-05,-1.4887052975047932e-05,-1.2975947024952067e-05,-5.952040537428101e-06,-1.4861279462571898e-05,-1.0445356429942457e-05,-2.0510455555555556,1.07155,1.71206,-1.76846,1.07155,1.910047037037037,-1.920942962962963,1.04738,-2.0027055555555555,-1.989422962962963,1.04335,2.02628,-2.00211,1.07558,1.672377037037037,-1.8323144444444444,1.05544,1.95779,1.8041144444444444,1.07155,-2.0027055555555555,1.94974,1.04335,2.025682962962963
1.01,-1.7830784615384647e-05,-4.65006961538462e-05,-3.149755769230775e-05,-1.0916615384615426e-05,-4.667501153846162e-06,-1.9754553846153516e-06,-6.623589230769297e-06,2.0464688461538378e-06,-2.0494014814814814,1.0740874074074074,1.71206,-1.7659225925925925,1.07155,1.9109425925925927,-1.91751,1.04738,-2.003598888888889,-1.9834525925925925,1.0458874074074074,2.028811111111111,-2.0046411111111113,1.07558,1.6732725925925926,-1.8314211111111112,1.0529025925925926,1.95779,1.80069,1.07155,-2.003598888888889,1.94974,1.04335,2.0247874074074073
1.02,-2.568414999999995e-05,-3.164928076923076e-05,-3.4502680769230765e-05,-8.373092692307703e-06,-1.9948226923077034e-06,-6.507385384615407e-06,3.3924923076923354e-06,-5.742382307692336e-06,-2.0468677777777775,1.0751322222222222,1.7084777777777778,-1.768012222222222,1.0679677777777778,1.9090022222222223,-1.91751,1.0437977777777778,-2.0056833333333337,-1.9774922222222222,1.04738,2.03433,-2.006577777777778,1.0791622222222221,1.67178,-1.82889,1.05544,1.9542166666666667,1.80069,1.0711022222222222,-2.00211,1.9461577777777779,1.0500666666666665,2.0267266666666663
1.03,-1.5125817307692585e-05,-2.8560173076922966e-05,-2.9948163461538517e-05,-1.09102e-05,1.17494e-06,-1.1387926923077032e-05,1.6300717307692584e-06,-4.628766538461484e-06,-2.05045,1.07155,1.7096718518518519,-1.76443,1.07155,1.9078081481481481,-1.919898148148148,1.04738,-2.0044922222222223,-1.976298148148148,1.04738,2.03433,-2.01016,1.07558,1.674168148148148,-1.82889,1.05544,1.95779,1.80069,1.06752,-2.00211,1.94974,1.041708148148148,2.02552962962963
1.04,-1.3292376923076786e-05,-3.9715742307692583e-05,-3.5054676923077034e-05,-4.280154615384257e-06,-1.8850746153844501e-06,-1.484817153846264e-06,-1.0813363846154258e-05,-1.0464799999999751e-05,-2.0467185185185186,1.07155,1.7117614814814814,-1.76443,1.07155,1.90945,-1.92154,1.0436485185185185,-2.0058322222222222,-1.98196,1.0430514814814815,2.0305985185185187,-2.01016,1.0758785185185185,1.67178,-1.82889,1.05141,1.95779,1.7972562962962961,1.07155,-2.00613,1.94974,1.04335,2.022548518518519
1.05,-4.9580084615388255e-06,-2.89604307692307e-05,-3.3221238461538594e-05,-8.586133076923242e-06,-1.013554846153823e-05,-5.384083846153714e-06,-9.257533076922812e-06,-6.352446923076758e-06,-2.05045,1.073788888888889,1.70803,-1.762191111111111,1.07155,1.90945,-1.9260122222222222,1.04738,-2.0043433333333334,-1.98196,1.041558888888889,2.03433,-2.007921111111111,1.077371111111111,1.67178,-1.82889,1.049171111111111,1.9600288888888888,1.8024766666666665,1.069311111111111,-2.00613,1.94974,1.04335,2.02628
1.06,-1.4105805769230738e-05,-3.0529182692307787e-05,-3.356339423076926e-05,2.257892884615462e-05,-5.229147884615264e-06,-3.7120521153845246e-06,1.5719750000001062e-06,-5.700414230769262e-06,-2.050598888888889,1.07558,1.7081792592592593,-1.7605492592592593,1.07558,1.9095992592592594,-1.92557,1.04738,-2.0062792592592595,-1.9821092592592593,1.0394692592592594,2.03433,-2.01016,1.079758888888889,1.67178,-1.82889,1.05141,1.9615218518518516,1.8048592592592594,1.06752,-2.00613,1.95377,1.04335,2.026428888888889
1.07,-1.8002672549019597e-05,-3.181565294117634e-05,-2.9659945098039334e-05,-6.444108627450607e-06,-6.253205490196724e-07,-4.610918235294195e-06,3.3898943137256323e-06,-8.060051176470538e-06,-2.05447,1.07558,1.7099703703703704,-1.76443,1.07558,1.9113903703703705,-1.92557,1.04738,-2.0080703703703704,-1.9880796296296295,1.04335,2.0322403703703706,-2.0080703703703704,1.0815455555555555,1.6738696296296296,-1.82889,1.05141,1.9558544444444443,1.80874,1.06752,-2.004045555555556,1.9558544444444443,1.0412603703703704,2.0303
1.08,-1.37636e-05,-3.03807e-05,-3.37377e-05,-1.49386e-05,1.0071e-06,-1.51064e-06,-8.22461e-06,-5.70687e-06,-2.05447,1.07558,1.71206,-1.7604,1.07558,1.90945,-1.92154,1.04335,-2.00613,-1.98599,1.04335,2.0303,-2.00211,1.07961,1.67178,-1.82889,1.05141,1.95779,1.80471,1.06752,-2.00613,1.95377,1.04335,2.0303
1.09,-1.3674788235293758e-05,-3.716052352941044e-05,-3.331642941176459e-05,-1.293424647058282e-06,-9.985419215686155e-06,3.3240758823505337e-07,-3.2747080392158064e-06,-1.3789949803917356e-06,-2.05447,1.07155,1.71206,-1.7623403703703704,1.07558,1.91348,-1.92154,1.04738,-2.00211,-1.98196,1.0452903703703704,2.0303,-2.00613,1.07961,1.67178,-1.83291,1.05141,1.95779,1.8027744444444445,1.0654303703703705,-2.0041944444444444,1.95377,1.04335,2.02628
1.1,-1.714001730769244e-05,-3.4034665384615116e-05,-3.4086311538461626e-05,-6.3266277307677305e-06,-4.3318011538459335e-06,-4.19623e-06,-5.713325769230814e-06,-9.25107730769244e-06,-2.0583507407407406,1.07155,1.71206,-1.76443,1.0716992592592591,1.91348,-1.92154,1.04738,-1.9982292592592592,-1.9858407407407408,1.0434992592592591,2.026428888888889,-2.00613,1.07961,1.67178,-1.8290388888888887,1.05141,1.95779,1.8045611111111113,1.0714007407407409,-2.005981111111111,1.9498892592592592,1.0394692592592591,2.02628
1.11,-1.734014615384577e-05,-2.7953330769230844e-05,-3.520957692307696e-05,-1.3621623076923387e-05,-3.834706923076615e-06,-3.8863553846156935e-06,-6.32662615384654e-07,-8.844361538460921e-06,-2.05447,1.073341111111111,1.71206,-1.76443,1.069311111111111,1.9076588888888888,-1.915718888888889,1.04738,-2.00211,-1.99002,1.04335,2.02628,-2.00613,1.077371111111111,1.67178,-1.83291,1.05141,1.95779,1.7988988888888888,1.06752,-2.0043433333333334,1.943918888888889,1.04335,2.0303
1.12,-9.60614423076948e-06,-3.3660230769230276e-05,-3.110374615384648e-05,-5.054846923077047e-06,5.164594615385442e-07,-5.887631538461622e-06,1.6462113846151778e-06,2.0658326923101734e-07,-2.05447,1.0718485185185185,1.71206,-1.7681614814814814,1.07155,1.90542,-1.9172114814814816,1.04738,-2.0058322222222222,-1.9862885185185184,1.04335,2.02628,-2.00613,1.07961,1.67178,-1.83291,1.05141,1.95779,1.8003914814814814,1.0712514814814815,-2.00211,1.949142962962963,1.0396185185185185,2.026577777777778
1.1300000000000001,-7.508026730769371e-06,-3.440585769230753e-05,-3.7669263461538415e-05,-4.86763e-06,-6.310484423077134e-06,-6.1200392307695126e-06,-1.3879853846153658e-05,-5.681049807692214e-06,-2.052087777777778,1.069908148148148,1.7096718518518519,-1.76846,1.07155,1.90542,-1.91751,1.045738148148148,-2.00211,-1.98196,1.04335,2.028662222222222,-2.003747777777778,1.07558,1.669391851851852,-1.82889,1.049021851851852,1.956152222222222,1.7983018518518519,1.07155,-2.0044922222222223,1.94571,1.040961851851852,2.0279177777777777
1.1400000000000001,-1.7046380769230794e-05,-2.83665e-05,-3.232068076923079e-05,-4.94832384615293e-06,-3.263376923076897e-06,2.0012665384578698e-07,-3.634583653845997e-06,-5.132310961538723e-06,-2.047314444444444,1.0711022222222224,1.71206,-1.76846,1.07155,1.90542,-1.9210922222222224,1.0397677777777776,-2.00211,-1.9855422222222223,1.04335,2.0298533333333335,-2.0025566666666665,1.07558,1.6753622222222224,-1.82889,1.05141,1.9573433333333334,1.80069,1.07155,-2.00211,1.94571,1.04335,2.0267266666666663
1.1500000000000001,-1.715938461538488e-05,-3.03807e-05,-2.9199303846153515e-05,-2.5435651923090154e-06,-9.90311e-06,-7.3272680769235395e-06,1.162033307691646e-06,-6.41054884615378e-06,-2.05045,1.07155,1.71206,-1.76443,1.07155,1.9069125925925927,-1.92154,1.0448425925925926,-2.00211,-1.9874825925925925,1.04335,2.0277688888888887,-2.003598888888889,1.0770725925925926,1.67581,-1.830378888888889,1.05141,1.95779,1.80069,1.06752,-2.003598888888889,1.94974,1.04335,2.02225
1.16,-1.6307223076922967e-05,-3.0432346153845933e-05,-3.3763523076922964e-05,-1.24337615384622e-05,-6.985111538461097e-06,2.0271022307698923e-06,5.229152307692198e-06,-4.932186923076647e-06,-2.05045,1.07155,1.7154929629629627,-1.76443,1.07155,1.90945,-1.9181070370370372,1.0439470370370372,-2.00211,-1.99002,1.04335,2.0268755555555553,-2.00613,1.0761770370370372,1.6723770370370372,-1.8260525925925926,1.05141,1.9543655555555557,1.80069,1.06752,-2.0027055555555555,1.94974,1.04335,2.02225
1.17,-1.5061259615384685e-05,-3.0045e-05,-3.30663e-05,1.0619707692307624e-06,-1.0555129807691825e-06,-7.879233076923015e-06,-9.402787884615405e-06,-4.6481338461538735e-06,-2.055813333333333,1.07155,1.7134033333333332,-1.76443,1.0688633333333333,1.90945,-1.92154,1.04738,-2.00613,-1.9873333333333334,1.0420066666666667,2.0303,-2.00613,1.0769233333333332,1.67581,-1.82889,1.0540966666666667,1.95511,1.8020299999999998,1.0702066666666668,-2.00345,1.94974,1.0420066666666667,2.0235933333333334
1.18,-2.171709807692306e-05,-2.887330769230771e-05,-2.924448461538465e-05,-2.788882307692324e-06,1.4460823076923242e-06,-1.3782967307692431e-06,-8.760438846153838e-06,-6.88182e-06,-2.0585,1.07155,1.7128062962962962,-1.76443,1.07155,1.9127337037037038,-1.9182562962962963,1.0440962962962963,-2.0028544444444445,-1.98196,1.0426037037037037,2.0270244444444443,-2.00613,1.07961,1.6692425925925927,-1.8321655555555556,1.05141,1.9545144444444444,1.80471,1.06752,-2.00613,1.9530237037037037,1.0426037037037037,2.02628
1.19,-1.4835307692307603e-05,-2.97093e-05,-2.6584707692307603e-05,-1.083273076923099e-05,-2.3498884615387482e-06,-7.811449230769451e-06,-2.401534615384946e-06,-2.9567307692308573e-06,-2.053278888888889,1.07155,1.71206,-1.7672659259259258,1.0743859259259259,1.90945,-1.92154,1.04738,-2.0033011111111114,-1.98599,1.0461859259259259,2.02628,-2.004938888888889,1.0784159259259258,1.6729740740740742,-1.830081111111111,1.052604074074074,1.9549611111111111,1.80069,1.0687140740740741,-2.0033011111111114,1.95779,1.04335,2.023444074074074
1.2,-2.187200769230781e-05,-3.7830657692307966e-05,-3.74304e-05,-1.1362103846153731e-05,-4.848262692307711e-06,-6.132950769230847e-06,-1.0264661538461346e-06,-1.32601e-05,-2.05045,1.07155,1.71206,-1.76443,1.07155,1.90945,-1.9246744444444444,1.0505144444444443,-2.00613,-1.98599,1.04335,2.0356755555555552,-2.00211,1.07558,1.67581,-1.8297833333333333,1.05544,1.9546633333333334,1.80069,1.07155,-2.0030033333333335,1.9546633333333334,1.04335,2.02628
1.21,-4.31566173076933e-06,-2.9386561538461627e-05,-3.72625e-05,-8.011569615384593e-06,-9.018669615384594e-06,-3.221415192307626e-06,-3.7055951923077805e-06,-9.289811923077033e-06,-2.051492222222222,1.06752,1.71206,-1.7654748148148147,1.07155,1.90945,-1.9245251851851852,1.0443948148148148,-2.0010651851851855,-1.99002,1.04335,2.0373151851851854,-2.00613,1.07558,1.67581,-1.82889,1.05141,1.95779,1.80069,1.06752,-2.00211,1.94974,1.03932,2.0273222222222222
1.22,-1.7346601923076577e-05,-3.040976923076906e-05,-3.2088269230769055e-05,-9.841780192307658e-06,-2.9760996153846844e-06,-7.475750769230631e-06,-6.88182e-06,-8.56031e-06,-2.05447,1.0705051851851852,1.71206,-1.76846,1.07155,1.9064648148148147,-1.9155696296296296,1.0503651851851852,-2.0040429629629632,-1.9870348148148147,1.0463351851851852,2.028367037037037,-2.00613,1.07558,1.67581,-1.82889,1.05141,1.95779,1.80069,1.06752,-2.00211,1.9467548148148148,1.0423051851851852,2.024337037037037
1.23,-2.3008261538461624e-05,-2.6733234615384496e-05,-3.191076153846153e-05,1.3298784615383734e-06,-1.1387928076923187e-05,-8.973479230769187e-06,3.4860965384615604e-06,-7.48220538461533e-06,-2.05447,1.07558,1.71206,-1.76846,1.07558,1.9063155555555555,-1.9184055555555557,1.05141,-2.00613,-1.9788333333333334,1.0442455555555556,2.025384444444444,-2.00211,1.07961,1.6749144444444444,-1.83291,1.05141,1.95377,1.80069,1.07155,-1.99808,1.9506355555555557,1.04335,2.02225
1.24,-8.999302307692396e-06,-2.2401369230769584e-05,-3.47964461538462e-05,-9.11550769230745e-06,-5.409906153846044e-06,-3.86053e-06,-2.2336861538461977e-06,-7.759796153846044e-06,-2.051641111111111,1.07558,1.71206,-1.76846,1.07558,1.906614074074074,-1.92154,1.05141,-2.0033011111111114,-1.98196,1.0445440740740741,2.030750740740741,-2.00211,1.07961,1.6689440740740742,-1.83291,1.05141,1.9565988888888888,1.80069,1.07155,-2.000915925925926,1.9509340740740742,1.0461859259259259,2.025085925925926
1.25,-1.62814e-05,-3.64233e-05,-3.4137957692307675e-05,-1.2946965384615314e-05,3.024513846153867e-06,-4.596487692307676e-06,-8.724932115384594e-06,-4.060658846153838e-06,-2.05045,1.07155,1.71206,-1.76846,1.07558,1.9069125925925925,-1.92154,1.0466337037037037,-2.00613,-1.98196,1.04335,2.03836,-2.00613,1.0763262962962963,1.67581,-1.83291,1.05544,1.95779,1.80069,1.07155,-2.00211,1.9464562962962964,1.04335,2.02225
1.26,-1.51064e-05,-3.37377e-05,-3.117475961538469e-05,-1.0800451923076936e-05,-6.320168076923063e-06,-9.56741e-06,-7.382142115384594e-06,5.087122884615357e-06,-2.047763333333333,1.07155,1.71206,-1.7657733333333334,1.0728933333333335,1.91348,-1.9188533333333335,1.0460366666666665,-2.00613,-1.98196,1.04335,2.032986666666667,-2.00613,1.0769233333333335,1.6784966666666665,-1.83023,1.05544,1.95779,1.80069,1.0688633333333335,-2.00211,1.94974,1.0406633333333335,2.0249366666666666
1.27,-1.3750692307692296e-05,-3.322123846153831e-05,-3.17493230769231e-05,-8.947656153846198e-06,-7.35954153846209e-07,-8.39246e-07,-2.5693861538461977e-06,-7.5273969230769005e-06,-2.047017037037037,1.07155,1.70803,-1.7609970370370371,1.0709529629629628,1.91348,-1.9181070370370372,1.04738,-2.01016,-1.9785355555555557,1.0467829629629628,2.02628,-2.00613,1.0761770370370372,1.6752129629629628,-1.82889,1.0548429629629628,1.95779,1.8012855555555556,1.06752,-2.00613,1.9503370370370372,1.03932,2.0303
1.28,-2.40024e-05,-2.6894584615384593e-05,-3.5913284615384646e-05,-6.274977692307703e-06,2.130387692307196e-07,-3.18914e-06,2.052924615384593e-06,-7.579041153846187e-06,-2.052981111111111,1.0690125925925926,1.70803,-1.7618925925925926,1.0700574074074074,1.91348,-1.9240774074074074,1.0448425925925926,-2.007622592592593,-1.9844974074074073,1.0408125925925926,2.033885925925926,-2.00613,1.0821411111111112,1.67178,-1.8314211111111112,1.05141,1.9603274074074073,1.80471,1.0649825925925926,-2.00613,1.95377,1.0418574074074074,2.0303
1.29,-1.8821723076923015e-05,-3.4544665384615305e-05,-3.173966730769235e-05,-8.912149423076961e-06,-4.680412692307703e-06,-1.8850746153845933e-06,-6.54612e-06,-6.784983461538516e-06,-2.0585,1.07558,1.711612222222222,-1.7608477777777778,1.0711022222222222,1.909897777777778,-1.92959,1.04335,-2.006577777777778,-1.98599,1.0437977777777778,2.0379122222222223,-2.0056833333333337,1.0831833333333334,1.66775,-1.828442222222222,1.05141,1.9582377777777777,1.80471,1.06752,-2.00613,1.95377,1.04335,2.0298533333333335
1.3,-1.162679038461555e-05,-3.17235e-05,-3.2491736538461485e-05,-1.15816e-05,-4.53193e-06,7.875970192309899e-07,-8.344041730769258e-06,-8.150371538461677e-06,-2.0585,1.07558,1.70803,-1.76443,1.069908148148148,1.91348,-1.92959,1.045738148148148,-2.01016,-1.983601851851852,1.04738,2.031941851851852,-2.00211,1.077221851851852,1.66775,-1.827248148148148,1.053798148148148,1.9594318518518519,1.8023277777777778,1.06752,-2.00613,1.95377,1.04335,2.028662222222222
1.31,-1.3072834615384697e-05,-2.84246038461536e-05,-3.387322307692322e-05,-1.0561588461538517e-05,-1.3124480769230631e-05,-5.5906661538459335e-06,-3.18914e-06,-7.688791153846291e-06,-2.0582014814814813,1.0793114814814815,1.7077322222222222,-1.7647285185185184,1.0752814814814815,1.9131814814814816,-1.92557,1.0436485185185185,-2.0098614814814812,-1.98196,1.0470814814814815,2.0303,-2.0058322222222222,1.0799077777777777,1.6680485185185185,-1.82889,1.0551414814814815,1.9615214814814814,1.80471,1.06752,-2.00211,1.95377,1.04335,2.030002222222222
1.32,-1.12459e-05,-3.081969230769211e-05,-3.6320007692307896e-05,-8.766894615384648e-06,-3.5764784615383624e-06,-4.22205538461512e-06,-2.2853323076921093e-06,-5.28079692307699e-06,-2.05447,1.0778188888888889,1.7062433333333333,-1.76846,1.07155,1.90945,-1.92557,1.045141111111111,-2.008368888888889,-1.9797266666666666,1.04335,2.032538888888889,-2.0043433333333334,1.0813966666666666,1.6695411111111111,-1.82889,1.05141,1.95779,1.806948888888889,1.06752,-2.00211,1.95377,1.045588888888889,2.028513333333333
1.33,-1.4092894230769262e-05,-3.6759e-05,-2.963508461538457e-05,-8.22461e-06,-5.271110769230845e-06,-8.39891576923074e-06,-3.276287692307677e-06,-3.053563653846002e-06,-2.05447,1.0794607407407406,1.704158888888889,-1.7683107407407406,1.0676692592592594,1.9095992592592594,-1.9254207407407407,1.04335,-2.00613,-1.978088888888889,1.0472307407407406,2.0385092592592593,-2.00211,1.08363,1.67178,-1.82889,1.05141,1.9616707407407405,1.80471,1.0637885185185187,-2.005981111111111,1.953918888888889,1.0434992592592593,2.0303
1.34,-1.0363901960784326e-05,-3.0643994117646876e-05,-3.4158970588235265e-05,-1.6268235294117856e-05,-9.774754117647099e-06,1.6126717647069143e-07,-1.0959562352940402e-06,-9.778045294117634e-06,-2.0523855555555555,1.07558,1.70803,-1.76443,1.0694603703703705,1.91348,-1.92154,1.0454396296296296,-2.00613,-1.98196,1.0454396296296296,2.04239,-2.00211,1.0815455555555555,1.6738696296296296,-1.82889,1.0534996296296295,1.9598796296296295,1.80471,1.0694603703703705,-2.00211,1.9557055555555556,1.0452903703703704,2.0282155555555557
1.35,-3.20592e-05,-2.85344e-05,-3.44091e-05,-3.86053e-06,-1.67849e-07,-7.55322e-06,-1.51064e-06,-1.09102e-05,-2.05045,1.07558,1.70401,-1.7604,1.07155,1.91348,-1.92154,1.04738,-2.01016,-1.98196,1.04738,2.03433,-2.00211,1.07961,1.67178,-1.83291,1.05141,1.96182,1.80069,1.07155,-2.00211,1.95377,1.04335,2.02628
1.36,-1.195349019607801e-05,-2.9959429411764585e-05,-3.2638447058822926e-05,-1.15816e-05,2.175457647058342e-06,-5.19674019607795e-06,1.5073513725487788e-06,-1.0959562352944788e-06,-2.05447,1.07558,1.70803,-1.7604,1.0734903703703704,1.9113903703703705,-1.9234803703703705,1.04738,-2.0122496296296295,-1.9879303703703703,1.04335,2.0322403703703706,-2.0041944444444444,1.0776696296296295,1.6737203703703705,-1.82889,1.0533503703703704,1.9558544444444443,1.7987496296296295,1.0694603703703705,-2.00211,1.94974,1.04335,2.0241903703703703
1.37,-1.15816e-05,-2.8166371153845587e-05,-3.6100511538461766e-05,-9.977346538461368e-06,-6.707514230769118e-06,-5.403453653846719e-06,-4.22205307692353e-06,1.5590619038455322e-06,-2.05447,1.07558,1.70803,-1.7642807407407408,1.0716992592592591,1.917360740740741,-1.92557,1.0434992592592591,-2.01016,-1.986139259259259,1.04335,2.03433,-2.005981111111111,1.07558,1.67581,-1.8327611111111113,1.05544,1.95377,1.79666,1.0676692592592592,-2.005981111111111,1.94974,1.0394692592592591,2.0223992592592595
1.3800000000000001,-1.62814e-05,-2.9296130769230844e-05,-3.296300769230746e-05,-7.398281538461693e-06,-5.384083846154001e-06,-7.863089230769926e-06,-6.455741538461963e-06,-1.0948923076923037e-05,-2.05045,1.07155,1.709821111111111,-1.76443,1.07155,1.91348,-1.9273566666666666,1.045141111111111,-2.008368888888889,-1.9841988888888888,1.04335,2.03433,-2.00613,1.07558,1.674018888888889,-1.82889,1.053201111111111,1.9560033333333333,1.79666,1.06752,-2.0043433333333334,1.94974,1.045141111111111,2.024488888888889
1.3900000000000001,-2.559051923076865e-05,-3.277578846153875e-05,-3.309857692307713e-05,-1.0477711538461994e-05,-2.5048284615383787e-06,-2.8276169230767576e-06,-1.35958e-05,-1.9741642307691893e-05,-2.0541722222222223,1.07155,1.7083285185185184,-1.7606985185185184,1.0752814814814815,1.9097485185185186,-1.92959,1.04738,-2.002407777777778,-1.9856914814814814,1.04335,2.03433,-2.00613,1.0793114814814815,1.679242962962963,-1.82889,1.05544,1.95377,1.8003914814814814,1.0712514814814815,-1.9983785185185186,1.94974,1.0436485185185185,2.0259814814814816
1.4000000000000001,-7.069037307691866e-06,-3.2872626923076745e-05,-3.0887513461538774e-05,-5.3001636538462425e-06,-6.023202692308134e-06,-2.162669807692749e-07,3.7410982692308135e-06,-3.18914e-06,-2.056858148148148,1.073191851851852,1.70803,-1.76443,1.07155,1.90542,-1.9263103703703701,1.04335,-2.00613,-1.9876318518518519,1.045738148148148,2.028662222222222,-2.01016,1.07558,1.67984,-1.8305277777777778,1.053051851851852,1.956152222222222,1.8030722222222222,1.069908148148148,-1.99808,1.94974,1.041708148148148,2.02628
1.41,-7.514480961538643e-06,-3.0567917307692215e-05,-3.37377e-05,-7.275618653848246e-06,-1.2662919230769277e-05,-1.0706815384615157e-05,-7.630683653845789e-06,3.55065749999909e-07,-2.05447,1.0684155555555557,1.711612222222222,-1.76443,1.07155,1.9090022222222223,-1.9251222222222222,1.0469322222222222,-2.0025566666666665,-1.9864377777777777,1.0469322222222222,2.02628,-2.006577777777778,1.0719977777777778,1.67984,-1.8293366666666666,1.05544,1.95377,1.80069,1.06752,-2.0016622222222225,1.94974,1.0429022222222222,2.02628
1.42,-1.2543500000000049e-05,-3.23949e-05,-3.2524015384615405e-05,-9.709436923076891e-06,-4.919274230769297e-06,-5.797250769230814e-06,-3.938001153846109e-06,-5.700414230769258e-06,-2.0559625925925924,1.0690125925925926,1.71609,-1.7659225925925925,1.07155,1.9069125925925925,-1.9200474074074074,1.04335,-2.00211,-1.980471111111111,1.0408125925925926,2.02628,-2.00613,1.07558,1.6783474074074074,-1.8314211111111112,1.0529025925925926,1.9522774074074074,1.80069,1.0690125925925926,-1.9995725925925927,1.94974,1.04335,2.02225
1.43,-1.4293023076923099e-05,-3.0406523076923098e-05,-3.27564230769231e-05,-1.02388e-05,-1.536463076923099e-06,-4.092938461538373e-06,-1.2872753846153801e-05,-8.637779230769298e-06,-2.0585,1.0681170370370372,1.71609,-1.7650270370370371,1.07155,1.906017037037037,-1.91751,1.0467829629629628,-2.00211,-1.9813644444444443,1.04335,2.02628,-2.0027055555555555,1.07558,1.67581,-1.82889,1.0520070370370371,1.94974,1.793824074074074,1.07155,-2.00211,1.94974,1.04335,2.02225
1.44,-1.9418903846153876e-05,-3.083260384615387e-05,-3.441229423076925e-05,-8.498980192307658e-06,-6.320168076923063e-06,-1.956088076923063e-06,8.557082115384596e-06,-6.429916153846126e-06,-2.0571566666666667,1.0688633333333333,1.71609,-1.7657733333333332,1.07558,1.90542,-1.9161666666666668,1.0487233333333332,-2.00211,-1.9846466666666664,1.0460366666666667,2.0303,-2.00211,1.07558,1.6784966666666667,-1.82889,1.05544,1.9510833333333333,1.7939733333333332,1.07155,-1.99808,1.94974,1.0406633333333333,2.02225
1.45,-6.704290384615322e-06,-3.3337442307692326e-05,-3.50805e-05,-7.55322e-06,-5.768203846153809e-06,6.326598269230438e-07,-4.160723269230757e-06,-8.56031e-06,-2.05447,1.07155,1.7128062962962962,-1.7717437037037036,1.07558,1.90542,-1.9167637037037037,1.05141,-2.00211,-1.99002,1.0466337037037037,2.0303,-2.00211,1.0722962962962963,1.6790937037037037,-1.8321655555555556,1.0521562962962963,1.9504862962962963,1.79666,1.07155,-1.99808,1.94974,1.0400662962962963,2.02225
1.46,-1.8192307692307605e-05,-4.386026153846101e-05,-3.49642538461536e-05,-6.701058461538594e-06,-5.668135384615495e-06,-1.897986153846198e-06,-1.6333046153846198e-05,-6.649412307692395e-06,-2.05447,1.0703559259259259,1.71206,-1.7712959259259258,1.0743859259259259,1.90945,-1.9187040740740742,1.04738,-2.00613,-1.99002,1.04335,2.0303,-2.00613,1.073938148148148,1.6770040740740741,-1.82889,1.05141,1.94974,1.79666,1.0703559259259259,-2.00211,1.95377,1.0405140740740741,2.02225
1.47,-2.0703596153846098e-05,-2.70237e-05,-3.158793461538475e-05,-4.228510000000135e-06,-1.6978573076922884e-06,-5.20333e-06,-8.03093807692327e-06,-2.065834999999614e-07,-2.0513433333333335,1.073788888888889,1.71206,-1.7653255555555556,1.07155,1.90945,-1.92154,1.04738,-2.0030033333333335,-1.99002,1.04335,2.0334344444444445,-2.00613,1.0764755555555556,1.6767055555555557,-1.8320166666666666,1.05141,1.9528744444444444,1.79666,1.06752,-1.9989755555555557,1.9506355555555557,1.0402155555555557,2.02225
1.48,-1.4415682692307847e-05,-2.97093e-05,-3.287264038461521e-05,-1.0697159615384592e-05,-4.257559807692296e-06,-1.4874042307692441e-05,1.9948256153847696e-06,-8.379548461538374e-06,-2.051492222222222,1.07558,1.71206,-1.76846,1.07155,1.90945,-1.9266122222222222,1.04335,-2.008072962962963,-1.98599,1.04335,2.031344814814815,-2.00613,1.0766248148148148,1.67581,-1.82486,1.0543951851851852,1.9548122222222222,1.80069,1.0685648148148148,-1.9991248148148149,1.94571,1.04335,2.02225
1.49,-1.490632115384622e-05,-3.657178269230784e-05,-3.251755961538459e-05,-7.55322e-06,1.2975996153845933e-06,2.8824909615385165e-06,-8.04385480769222e-06,-2.14976115384622e-06,-2.057455185185185,1.0725948148148148,1.71206,-1.7714451851851851,1.07155,1.90945,-1.92959,1.04335,-2.005087777777778,-1.98599,1.0463351851851852,2.03433,-2.00613,1.07961,1.67581,-1.82486,1.05141,1.95779,1.80069,1.07155,-2.005087777777778,1.94571,1.0403648148148148,2.028212962962963
1.5,-2.0271065384615405e-05,-3.183970384615378e-05,-3.764989615384622e-05,-1.2549965384615407e-05,1.0587371923077586e-06,-2.8728073076922967e-06,-2.446726538461483e-06,-1.5668096153846122e-05,-1.143611111111081,1.07155,1.7111644444444443,-1.7693555555555556,1.0724455555555557,1.90945,-1.92959,1.0482755555555556,-2.007025555555556,-1.99002,1.04738,2.035225555555556,-2.005236666666667,1.07961,1.67178,-1.82889,1.0523055555555556,1.95377,1.80069,1.06752,-2.00211,1.9506355555555557,1.04335,2.0294066666666666
1.51,-2.1471830769230615e-05,-3.2859715384615206e-05,-3.37377e-05,-8.276256153846198e-06,-1.127172461538435e-05,-2.2853323076923956e-06,-2.582296153846352e-06,-9.076771538461408e-06,-0.8414840740740792,1.0743859259259259,1.7137018518518519,-1.769654074074074,1.07558,1.906614074074074,-1.9267611111111111,1.048574074074074,-2.01016,-1.9956918518518518,1.04738,2.035524074074074,-2.00211,1.082438888888889,1.67178,-1.82889,1.052604074074074,1.9565988888888888,1.80069,1.0703559259259259,-2.00211,1.95377,1.04335,2.02628
1.52,-4.9095884615385155e-06,-2.917671923076926e-05,-3.5680886538461515e-05,-7.88891e-06,-2.520967884615405e-06,-7.411187115384566e-06,-8.424738846153839e-06,-7.353091153846162e-06,-2.061783703703704,1.07961,1.7113137037037036,-1.7717437037037036,1.07155,1.9101962962962964,-1.9263144444444444,1.0506637037037037,-2.01016,-1.9933037037037038,1.05141,2.0376137037037036,-2.00613,1.0788637037037037,1.6765562962962963,-1.82889,1.0521562962962963,1.95779,1.80471,1.0682662962962963,-2.00211,1.9489937037037037,1.0440962962962963,2.02628
1.53,-1.5064453846153936e-05,-4.067119615384613e-05,-3.496749038461538e-05,-9.176835961538468e-06,-1.2253e-05,-6.7656161538461255e-06,-5.471241153846078e-06,-2.065836153846126e-06,-2.055813333333333,1.0822900000000002,1.70803,-1.76846,1.07155,1.9161666666666668,-1.92691,1.0446933333333333,-2.012846666666667,-1.9873333333333332,1.0487233333333332,2.0370166666666667,-2.0088166666666667,1.0728933333333333,1.6771533333333333,-1.82889,1.0527533333333332,1.95511,1.8020299999999998,1.0688633333333333,-2.00211,1.94571,1.0446933333333333,2.02628
1.54,-2.9567315384616264e-06,-3.49772076923076e-05,-3.61134230769231e-05,-1.0832731538461472e-05,-1.0264623076923098e-05,-3.7314153846152744e-06,-1.252409230769297e-06,-3.989646153845978e-06,-2.05447,1.0830344444444444,1.70401,-1.76846,1.0749829629629628,1.9181070370370372,-1.9261655555555557,1.0387229629629628,-2.014787037037037,-1.98196,1.0439470370370372,2.03433,-2.0055344444444447,1.0721470370370372,1.67581,-1.8323144444444444,1.05141,1.9543655555555557,1.8000929629629627,1.06752,-1.9986770370370373,1.9491429629629629,1.04335,2.02628
1.55,-2.56809e-05,-2.9309042307692296e-05,-3.455112692307689e-05,-1.211097692307667e-05,-6.391183461538406e-07,-3.2666011538461097e-06,-2.2401419230769615e-06,-1.3195542307692297e-05,-2.05447,1.07961,1.7014725925925926,-1.7659225925925925,1.0690125925925926,1.9240774074074074,-1.92959,1.0378274074074074,-2.01822,-1.98196,1.04738,2.0368674074074073,-2.00211,1.0781174074074074,1.6732725925925926,-1.82889,1.05141,1.9552588888888889,1.7991974074074073,1.0700574074074074,-2.00211,1.94571,1.0408125925925926,2.028811111111111
1.56,-2.16526e-05,-3.146526923076919e-05,-3.172029423076928e-05,-7.320807884615517e-06,-3.6765449999999615e-06,-3.4699603846153683e-06,-4.19623e-06,-4.19623e-06,-2.0540233333333333,1.0831833333333334,1.69998,-1.7604,1.06752,1.92557,-1.933172222222222,1.0397677777777778,-2.0177722222222223,-1.9824077777777778,1.0429022222222222,2.0468677777777775,-2.0025566666666665,1.07961,1.67178,-1.828442222222222,1.05141,1.95377,1.7971077777777777,1.0711022222222222,-2.00211,1.9501877777777779,1.04335,2.0303
1.57,-8.889557115385001e-06,-3.21495807692311e-05,-3.519989615384618e-05,-1.1462132692307666e-05,9.360808076922526e-07,-5.487378269232424e-07,-9.809512884615246e-06,-4.648133846154067e-06,-2.05045,1.0819922222222222,1.697591851851852,-1.758011851851852,1.065131851851852,1.92557,-1.9248196296296296,1.040961851851852,-2.011801851851852,-1.983601851851852,1.03932,2.045673703703704,-2.003747777777778,1.077221851851852,1.674168148148148,-1.82486,1.05141,1.95377,1.7983018518518519,1.06752,-2.00211,1.95377,1.04335,2.0279177777777777
1.58,-1.8967e-05,-2.603596923076914e-05,-3.258216538461529e-05,-1.5597088461538523e-05,-1.1620286923077529e-06,-4.254331538461266e-06,-6.21042e-06,-2.8147053846155663e-06,-2.05045,1.0758785185185187,1.6962485185185188,-1.75637,1.06752,1.9252714814814813,-1.92154,1.0396185185185187,-2.006428518518519,-1.9736114814814814,1.0436485185185187,2.0297037037037033,-2.00613,1.0793114814814813,1.67984,-1.83291,1.04738,1.95377,1.80069,1.0712514814814813,-2.0018114814814814,1.94974,1.04335,2.030002222222222
1.59,-2.2220669230769e-05,-2.8521438461538595e-05,-3.604885384615381e-05,1.3557047692302069e-06,-1.6578353846153814e-05,-3.576483846154177e-06,2.51774e-06,-6.959289230769296e-06,-2.05045,1.07961,1.6977411111111111,-1.75637,1.06752,1.92154,-1.9260122222222222,1.04335,-2.01016,-1.9765911111111114,1.04738,2.020011111111111,-2.00613,1.07558,1.67984,-1.8306766666666665,1.04738,1.95377,1.80069,1.069758888888889,-1.99808,1.94974,1.04335,2.028513333333333
1.6,-4.4770559615383255e-06,-3.3508544230769125e-05,-3.241431730769221e-05,-1.0225893653846215e-05,-3.52483e-06,-3.699135769230739e-06,-5.861808461538523e-06,-4.893447884615264e-06,-2.05045,1.07961,1.69998,-1.75637,1.0716992592592594,1.9213907407407407,-1.9254207407407407,1.0512607407407406,-2.0098618518518516,-1.9897214814814812,1.0472307407407406,2.0186674074074076,-2.0062792592592595,1.07558,1.67984,-1.8290388888888889,1.05141,1.94974,1.8005407407407406,1.0676692592592594,-2.00211,1.9498892592592594,1.04335,2.02628
1.61,-2.43381e-05,-2.76951e-05,-3.2773398039215675e-05,-6.88182e-06,-4.4463594117647316e-06,-8.05347137254907e-06,-2.267610588235268e-06,-6.54612e-06,-2.0483603703703706,1.07961,1.7020696296296296,-1.75637,1.0734903703703704,1.91751,-1.9236296296296296,1.04738,-2.0000203703703705,-1.9756962962962963,1.0412603703703704,2.0303,-2.01016,1.07558,1.67984,-1.83291,1.05141,1.94974,1.79666,1.07155,-2.00211,1.9516803703703705,1.04335,2.02628
1.62,-1.42672e-05,-3.03807e-05,-3.37377e-05,-1.2253e-05,3.35698e-07,-5.53902e-06,-7.55322e-06,-1.02388e-05,-2.04642,1.07558,1.70401,-1.75637,1.07558,1.91751,-1.92154,1.04335,-1.99808,-1.96182,1.04335,2.02628,-2.00613,1.07558,1.67984,-1.83694,1.05141,1.95377,1.79263,1.07155,-2.00211,1.94571,1.04335,2.02628
1.6300000000000001,-9.949183921568929e-06,-3.2138188235293756e-05,-3.487314313725508e-05,-8.178536078431072e-06,-1.1545384313725912e-05,-4.1797766666654626e-07,-5.124339215686636e-06,-4.696488823529172e-06,-2.046270740740741,1.06752,1.707885925925926,-1.75637,1.07961,1.90542,-1.9115396296296296,1.0452903703703704,-1.99405,-1.969730740740741,1.0412603703703704,2.014339259259259,-2.0082196296296297,1.0754307407407409,1.6778996296296296,-1.8290340740740738,1.0533503703703704,1.95377,1.7986003703703703,1.0694603703703705,-2.0019559259259263,1.9476503703703705,1.04335,2.0303
1.6400000000000001,-1.945118269230735e-05,-2.9305838461538743e-05,-3.0467878846153903e-05,-2.2465963461549764e-06,-4.170406923076471e-06,-4.6804126923073535e-06,-5.564847884615837e-06,-3.0148342307691176e-06,-2.054321111111111,1.06752,1.7198214814814818,-1.75637,1.075729259259259,1.90542,-1.905569259259259,1.0512607407407408,-1.990169259259259,-1.9894233333333335,1.0394692592592591,2.01016,-2.00613,1.07961,1.67581,-1.8326118518518522,1.051559259259259,1.95377,1.796809259259259,1.0676692592592592,-2.002258888888889,1.9458592592592592,1.0394692592592591,2.026428888888889
1.6500000000000001,-2.1394369230769154e-05,-2.7578907692307807e-05,-3.435745384615423e-05,-1.0651969230769154e-05,-3.3828053846156935e-06,-2.956732307692539e-06,5.009656923077116e-06,-7.966379230769154e-06,-2.056261111111111,1.0670722222222224,1.7259411111111111,-1.7657733333333334,1.07558,1.901842222222222,-1.9049777777777779,1.05544,-1.99405,-1.99405,1.041558888888889,2.015981111111111,-2.008368888888889,1.073788888888889,1.677601111111111,-1.82889,1.0536488888888889,1.95377,1.80069,1.06752,-2.0003188888888888,1.9475011111111111,1.03932,2.024041111111111
1.6600000000000001,-1.9754553846153514e-05,-4.072924999999855e-05,-3.118771923076903e-05,-2.334391153846162e-05,-6.70751423076919e-06,-1.2136746153848634e-06,-4.03483576923081e-06,-2.879262692307858e-06,-2.0585,1.0678185185185185,1.72818,-1.77249,1.07558,1.89737,-1.9131814814814816,1.0517085185185184,-1.99405,-1.99405,1.03932,2.0219514814814814,-2.00613,1.0752814814814815,1.672377037037037,-1.82889,1.0551414814814815,1.95377,1.80069,1.0637885185185185,-2.0018114814814814,1.94974,1.03932,2.02628
1.67,-1.4654546153845933e-05,-3.352792307692272e-05,-3.7310932692307664e-05,-2.5693832692305485e-06,1.904440576923904e-07,-3.957366538461484e-06,-1.0380829807692419e-05,-1.5325946153845934e-05,-2.052832222222222,1.065131851851852,1.729817777777778,-1.77652,1.07155,1.89737,-1.91348,1.04738,-1.99002,-1.9973337037037038,1.040961851851852,2.014936296296296,-2.00211,1.07558,1.67178,-1.8305277777777778,1.053051851851852,1.95377,1.7983018518518519,1.069161851851852,-2.00211,1.951381851851852,1.04335,2.02628
1.68,-7.178785384615406e-06,-2.7953330769230814e-05,-3.674283269230765e-05,-9.364053269230742e-06,-5.164590961538484e-06,-4.719147307692297e-06,-3.4505886538461485e-06,-7.14004634615389e-06,-2.05045,1.0639377777777779,1.7286266666666668,-1.77652,1.07155,1.89737,-1.91348,1.0509622222222221,-1.9936022222222223,-2.0056833333333337,1.04335,2.01016,-2.00211,1.0791622222222221,1.67178,-1.83291,1.0518577777777778,1.9609255555555554,1.80069,1.07155,-2.00211,1.9501877777777779,1.0397677777777778,2.02628
1.69,-1.8695857692307703e-05,-3.342782307692297e-05,-3.391201538461536e-05,-4.596483846154001e-06,-8.63778115384611e-06,-6.88182e-06,-1.0793998076923e-05,-2.5822976923077033e-06,-2.0479125925925925,1.0619974074074074,1.72415,-1.7750274074074075,1.07155,1.89737,-1.9160174074074074,1.0499174074074074,-1.9925574074074075,-2.00211,1.03932,2.0116525925925925,-2.00613,1.0821411111111112,1.67178,-1.82486,1.0488725925925926,1.9588385185185186,1.8021788888888888,1.0700574074074074,-2.00211,1.9482474074074074,1.04335,2.0303
1.7,-1.8502138461538496e-05,-2.24013692307693e-05,-3.10521e-05,-6.726882307692175e-06,-7.21752e-06,-7.501573846153801e-06,-7.55322e-06,-8.547398461538451e-06,-2.0538744444444443,1.0628929629629629,1.72415,-1.77249,1.0681170370370372,1.9008029629629628,-1.91348,1.04738,-1.99002,-2.00211,1.03932,2.01419,-2.00613,1.0761770370370372,1.6752129629629628,-1.8282929629629627,1.05141,1.95377,1.8012855555555556,1.0709529629629628,-2.00211,1.9491429629629629,1.04335,2.0268755555555553
1.71,-4.3608521153845945e-06,-2.8579540384615316e-05,-3.18914e-05,-1.2691992307692251e-05,1.0103201730769437e-06,-1.9625438461538736e-06,3.18914e-06,-1.2478951923076937e-05,-2.055813333333333,1.0621466666666668,1.72012,-1.7711466666666666,1.0661766666666666,1.89737,-1.90542,1.05141,-1.99002,-1.9953933333333334,1.0420066666666667,2.0115033333333336,-2.012846666666667,1.07558,1.67581,-1.8302266666666667,1.0500666666666667,1.95377,1.80069,1.07155,-1.9994233333333333,1.94974,1.04335,2.02628
1.72,-1.1178094230769226e-05,-2.9309042307692323e-05,-3.4915848076923094e-05,5.916688461538515e-06,-7.0819488461538376e-06,-1.981911153846162e-06,7.792079423076949e-06,-5.067772884615591e-07,-2.055216296296296,1.0627437037037037,1.72012,-1.76846,1.07155,1.89737,-1.90542,1.05141,-1.99002,-1.9834525925925925,1.0360362962962963,2.00613,-2.0068762962962965,1.0788637037037037,1.67581,-1.82486,1.0539474074074073,1.95377,1.80069,1.0748337037037037,-2.00211,1.9530237037037037,1.04335,2.0229962962962964
1.73,-1.910898461538459e-05,-3.136197692307719e-05,-3.29630076923076e-05,-1.3647446153846198e-05,-5.177506923076901e-06,-3.5506530769230992e-06,-9.038036923076901e-06,-9.128417692307604e-06,-2.05447,1.06752,1.72012,-1.769654074074074,1.0727440740740741,1.90542,-1.90542,1.05141,-1.987184074074074,-1.9807688888888888,1.038125925925926,2.012548148148148,-2.004938888888889,1.07558,1.67984,-1.822024074074074,1.056631111111111,1.9509340740740742,1.79666,1.07155,-2.00211,1.95377,1.0421559259259259,2.025085925925926
1.74,-1.0316269230769187e-05,-2.9748034615384595e-05,-3.37377e-05,-7.178785384615406e-06,-8.715248461538374e-06,-2.1045707692308134e-06,-8.463474615384671e-06,-4.060660000000078e-06,-2.0513433333333335,1.06752,1.7232544444444444,-1.7693555555555556,1.07558,1.9022933333333334,-1.9085544444444444,1.05141,-1.9931544444444445,-1.9810666666666665,1.0384244444444444,2.015085555555556,-2.00211,1.07558,1.67984,-1.8217255555555556,1.0563333333333333,1.95377,1.7997944444444443,1.07155,-1.9989755555555557,1.95377,1.03932,2.02225
1.75,-1.585531923076919e-05,-3.2640219230769185e-05,-3.37377e-05,-6.759160384615407e-06,1.8043838461537027e-06,-9.141329230769186e-06,-1.002576596153844e-05,4.519011538463744e-08,-2.051492222222222,1.07155,1.7220603703703705,-1.7674151851851851,1.07558,1.9043777777777777,-1.90945,1.0503651851851852,-1.99002,-1.9870348148148147,1.04335,2.01419,-2.005087777777778,1.07961,1.6787951851851852,-1.8178448148148147,1.058417777777778,1.95377,1.80069,1.0685648148148148,-1.9991248148148149,1.9567477777777778,1.0403648148148148,2.02628
1.76,-1.7837240384615407e-05,-2.8201909615384493e-05,-3.2075371153846115e-05,-8.960564038461406e-06,6.391181538461627e-06,1.3557061538468154e-07,-3.86053e-06,-4.85149057692311e-06,-2.05447,1.07155,1.71609,-1.76443,1.0785651851851852,1.9014,-1.9124351851851853,1.0503651851851852,-1.9930051851851853,-1.99002,1.04335,2.01419,-2.00211,1.07961,1.67581,-1.8238151851851852,1.05544,1.95377,1.80069,1.0685648148148148,-1.9991248148148149,1.95377,1.04335,2.02628
1.77,-2.26596e-05,-3.219477692307679e-05,-3.121350000000017e-05,2.814705384615423e-06,-8.444107307692425e-06,-5.022567307692153e-06,-4.099393461538558e-06,-1.2407938461538306e-05,-2.05447,1.0746844444444443,1.71609,-1.76443,1.0746844444444443,1.90542,-1.9152711111111111,1.04738,-2.00211,-1.9931544444444445,1.04335,2.02225,-1.99808,1.07558,1.67581,-1.82083,1.0545444444444443,1.9546633333333334,1.80069,1.0684155555555557,-2.00211,1.95377,1.0402155555555557,2.025384444444444
1.78,-1.4654546153846199e-05,-2.6662176923077185e-05,-3.527413076923079e-05,-1.637174307692129e-05,-8.121319230769142e-06,-3.679768461538594e-06,5.668136923076747e-06,-6.274977692307604e-06,-2.05447,1.0743859259259259,1.71609,-1.761594074074074,1.07155,1.90542,-1.92154,1.04738,-1.9992740740740742,-1.99002,1.0405140740740741,2.02225,-1.99808,1.0784159259259258,1.67581,-1.8236659259259258,1.05141,1.9549611111111111,1.80069,1.07155,-2.004938888888889,1.95377,1.0405140740740741,2.025085925925926
1.79,-2.0606715384615352e-05,-3.2595028846153834e-05,-3.3673142307692324e-05,-7.753342884615376e-06,-3.854078269230728e-06,-8.824996538461515e-06,-8.321450576923051e-06,-4.19623e-06,-2.05045,1.07155,1.71206,-1.7604,1.07155,1.90945,-1.92557,1.0400662962962963,-1.99405,-1.9907662962962962,1.0400662962962963,2.021503703703704,-1.9988262962962964,1.07961,1.67581,-1.8263507407407407,1.0521562962962963,1.9489937037037037,1.7999437037037036,1.0748337037037037,-2.0028544444444445,1.9530237037037037,1.04335,2.0270244444444443
1.8,-1.159451153846162e-05,-3.149754807692306e-05,-3.384744807692306e-05,-6.542892115384594e-06,-9.56741e-06,-1.0716506346154399e-06,-1.0287208653846107e-05,-2.51774e-06,-2.05313,1.07155,1.71206,-1.7630866666666667,1.07155,1.9121366666666668,-1.92557,1.04335,-1.9994233333333336,-1.99405,1.04335,2.020906666666667,-2.007476666666667,1.07961,1.6784966666666667,-1.83291,1.05544,1.9483966666666668,1.79666,1.07155,-2.00345,1.94974,1.04335,2.0303
1.81,-1.15557769230769e-05,-3.10004538461538e-05,-3.32083769230769e-05,-8.741071538461549e-06,-5.642312307692396e-06,-2.51774e-06,3.873446153835139e-08,-4.557753076923099e-06,-2.05045,1.07155,1.70803,-1.76443,1.06752,1.9100470370370373,-1.92154,1.0467829629629628,-2.00211,-1.990617037037037,1.0467829629629628,2.023442592592593,-2.006727037037037,1.0830344444444444,1.67984,-1.82889,1.05141,1.95377,1.797257037037037,1.07155,-2.00211,1.94974,1.0439470370370372,2.02628
1.82,-1.8089015384615408e-05,-2.919930384615387e-05,-3.37377e-05,-1.2136796153846077e-05,5.332443461538484e-06,-2.9696380769232976e-07,1.4138053846153681e-06,-4.803072307692297e-06,-2.05045,1.0740874074074074,1.70803,-1.7669674074074073,1.06752,1.91348,-1.916465185185185,1.048424814814815,-2.0046411111111113,-1.99405,1.04335,2.0328374074074076,-2.0126974074074075,1.0770725925925926,1.6773025925925926,-1.82889,1.05141,1.956301111111111,1.7981525925925925,1.07155,-2.00211,1.9472025925925927,1.0448425925925926,2.02628
1.83,-1.5703580769230723e-05,-2.2917830769231136e-05,-3.576801153846186e-05,-7.74043173076914e-06,-6.568715192307192e-06,-1.84634e-06,6.907641923076014e-07,-9.083227307692216e-06,-2.05045,1.0719977777777778,1.70803,-1.7648777777777778,1.06752,1.91751,-1.91348,1.04738,-2.00613,-1.9891244444444443,1.04335,2.0334355555555557,-2.0097122222222223,1.07961,1.6793922222222222,-1.83291,1.0518577777777778,1.95377,1.7971077777777777,1.07155,-2.0016622222222225,1.9492922222222222,1.04335,2.02628
1.84,-1.2136746153845933e-05,-2.7162513461538765e-05,-3.6281273076922966e-05,-6.597766153845934e-06,-2.5919813461537083e-06,-8.07935807692316e-06,-4.673956923077034e-06,5.293716538460436e-07,-2.048061851851852,1.077968148148148,1.70803,-1.770848148148148,1.06752,1.91751,-1.91348,1.04738,-2.00613,-1.9795777777777779,1.04335,2.023891851851852,-2.003747777777778,1.07961,1.67581,-1.8305277777777778,1.053051851851852,1.95377,1.80069,1.069161851851852,-1.99808,1.94571,1.04335,2.02628
1.85,-1.5758434615384708e-05,-2.8353588461538522e-05,-3.0877842307692334e-05,1.3201996153846427e-05,-1.121362307692323e-05,-6.320168461538734e-06,-4.570664230769049e-06,-5.0290242307692606e-06,-2.04239,1.07558,1.70803,-1.7647285185185186,1.0678185185185187,1.9137785185185188,-1.9097485185185188,1.04738,-2.002407777777778,-1.97794,1.03932,2.02628,-2.00211,1.07961,1.6755114814814813,-1.82889,1.05141,1.95377,1.80069,1.07155,-1.9983785185185188,1.9500385185185187,1.04335,2.030002222222222
1.86,-2.73594e-05,-2.692040769230789e-05,-3.092298461538508e-05,4.6480999999910685e-07,-5.56484538461512e-06,2.51774e-06,-4.260789999999338e-07,-4.945099230769297e-06,-2.04239,1.07558,1.7102688888888888,-1.766221111111111,1.07155,1.9152711111111111,-1.91348,1.04738,-2.00613,-1.9801733333333333,1.041558888888889,2.02628,-2.00211,1.07961,1.674018888888889,-1.82889,1.05141,1.95377,1.8029233333333334,1.069311111111111,-2.00211,1.951531111111111,1.04335,2.02628
1.87,-2.525807307692309e-05,-3.7469134615384435e-05,-3.19236288461537e-05,-7.779166730768958e-06,-6.397637307692217e-06,-1.0761717307692217e-05,-4.928955000000106e-06,-9.541582115384737e-06,-2.042688518518519,1.07558,1.71206,-1.76846,1.0754307407407406,1.9133307407407407,-1.9213907407407407,1.04738,-2.005981111111111,-1.9861392592592593,1.04335,2.0261307407407405,-1.9982292592592594,1.07961,1.67581,-1.8290388888888889,1.04738,1.95377,1.80471,1.0676692592592594,-1.99808,1.9498892592592594,1.04335,2.0303
1.8800000000000001,-8.395751176470537e-06,-3.230274705882366e-05,-3.28622843137254e-05,-8.724868823529463e-06,-1.3460811764705366e-06,-6.88182e-06,-4.782059411764732e-06,-8.777527647058708e-06,-2.0525344444444444,1.0734903703703704,1.71206,-1.76846,1.07155,1.9115396296296296,-1.91751,1.0494696296296295,-2.0000203703703705,-1.99002,1.0454396296296296,2.0201603703703706,-2.00211,1.0775203703703704,1.6737203703703705,-1.83291,1.0494696296296295,1.9516803703703705,1.8026255555555555,1.07155,-2.00016962962963,1.9516803703703705,1.04335,2.0303
1.8900000000000001,-9.231710000000145e-06,-2.63523e-05,-3.524829999999964e-05,-1.0070999999984949e-06,-3.3569800000003584e-06,-1.67849e-07,-7.217520000000501e-06,-1.3931499999999499e-05,-2.0585,1.07155,1.71206,-1.77249,1.0755799999999998,1.91348,-1.9175099999999998,1.04738,-1.9940500000000003,-1.9940500000000003,1.0473799999999998,2.01822,-2.00211,1.07961,1.67984,-1.82889,1.0554399999999997,1.9537699999999998,1.80069,1.07155,-1.99808,1.94571,1.03932,2.0303
1.9000000000000001,-1.595228235294166e-05,-2.2982160784312765e-05,-3.3362543137255084e-05,-1.0482349607842536e-05,4.209392156863708e-06,-7.981070392157464e-06,-5.489654901960243e-06,-3.2914117649465954e-09,-2.06253,1.07155,1.71206,-1.7705496296296295,1.07155,1.91348,-1.9154203703703705,1.04738,-1.9961396296296297,-1.9982292592592592,1.04335,2.0162796296296297,-2.004045555555556,1.0776696296296295,1.67984,-1.8308255555555557,1.05141,1.94974,1.80069,1.0696096296296296,-1.99808,1.94571,1.0412603703703704,2.026424074074074
1.9100000000000001,-2.4499494230769117e-05,-3.669119038461567e-05,-3.66718211538461e-05,-6.129722884615441e-06,-7.927649423077601e-06,-4.906360192305432e-07,1.2136789423083704e-06,-1.6720342307691177e-06,-2.0586492592592593,1.07155,1.71206,-1.7723407407407408,1.07155,1.9095992592592592,-1.91751,1.04738,-1.997930740740741,-1.99405,1.04335,2.01419,-2.00613,1.0794607407407408,1.6759592592592591,-1.8290388888888887,1.05141,1.9536207407407409,1.80069,1.0714007407407409,-1.99808,1.949590740740741,1.04335,2.0261307407407405
1.92,-7.837266153845822e-06,-3.1155392307692106e-05,-3.1646030769230705e-05,-1.1762361538461407e-05,-1.6436338461538595e-05,1.7172223076927709e-06,-1.9367246153819668e-07,-8.818540769230702e-06,-2.0585,1.07155,1.71206,-1.76846,1.07155,1.90542,-1.915718888888889,1.04738,-1.99808,-1.99002,1.03932,2.020011111111111,-2.00613,1.07558,1.67984,-1.82889,1.04738,1.951978888888889,1.79666,1.07155,-1.99808,1.951531111111111,1.045588888888889,2.024041111111111
1.93,-8.883098461538521e-06,-3.0806830769231135e-05,-2.92058e-05,-8.902465769230739e-06,-2.8082496153848276e-06,-1.5235515384614778e-06,-8.22461e-06,-8.39246e-06,-2.0547685185185185,1.07155,1.7157914814814812,-1.7647285185185186,1.07155,1.90542,-1.91348,1.0436485185185187,-2.0018114814814814,-1.99002,1.03932,2.025981481481481,-2.00613,1.07558,1.6761085185185187,-1.82889,1.0511114814814813,1.94974,1.8003914814814812,1.0752814814814813,-2.0018114814814814,1.95377,1.04335,2.02628
1.94,-2.0503473076922966e-05,-2.870865576923038e-05,-3.356658653846173e-05,4.3576307692426247e-07,-4.96769153846129e-06,-5.53902e-06,-6.045797884615192e-06,-5.7746584615387095e-06,-2.052087777777778,1.07155,1.71206,-1.7692062962962962,1.069908148148148,1.9070618518518518,-1.91751,1.0466337037037037,-2.00211,-1.99002,1.04335,2.02628,-2.00211,1.07558,1.673421851851852,-1.82889,1.05544,1.94974,1.79666,1.07155,-2.00211,1.951381851851852,1.044991851851852,2.02628
1.95,-2.0458282692307703e-05,-3.6652457692307605e-05,-3.248853653846153e-05,-9.722342884615296e-06,-7.010935384615406e-06,-5.645545769230852e-06,-5.429276346153814e-06,-6.061937307692297e-06,-2.0508966666666666,1.07155,1.71206,-1.768012222222222,1.0711022222222222,1.9130322222222222,-1.91751,1.05141,-2.00211,-1.99002,1.04335,2.0226977777777777,-2.00211,1.07558,1.6793922222222222,-1.8324633333333333,1.05544,1.94974,1.79666,1.07155,-1.998527777777778,1.9573433333333332,1.0437977777777778,2.0226977777777777
1.96,-7.088404615384593e-06,-2.894756923076919e-05,-3.035492692307689e-05,-1.7353057692307703e-05,-5.939272307692749e-07,-4.738514615384593e-06,-1.0329179230769561e-06,-5.03548e-06,-2.0479125925925925,1.07155,1.7135525925925925,-1.76846,1.07155,1.90945,-1.91751,1.0488725925925926,-2.00211,-1.9874825925925925,1.0458874074074074,2.0247874074074073,-2.00211,1.07558,1.6813288888888889,-1.8233674074074073,1.0529025925925926,1.948695185185185,1.7996414814814814,1.0690125925925926,-1.9955425925925927,1.956301111111111,1.04335,2.02225
1.97,-1.75983769230769e-05,-2.49579000000001e-05,-3.37377e-05,-5.642312307692396e-06,-1.9367200000002206e-07,-6.262066153846199e-06,-7.06258153846155e-06,-3.5377415384615497e-06,-2.05045,1.07155,1.712657037037037,-1.7718929629629627,1.07155,1.912882962962963,-1.91751,1.0479770370370372,-2.00211,-1.99002,1.04335,2.018817037037037,-2.00211,1.07558,1.6804355555555557,-1.8276959259259258,1.05544,1.95377,1.8012855555555556,1.07155,-1.99808,1.95377,1.04335,2.025682962962963
1.98,-1.7062548076923063e-05,-3.095526346153856e-05,-3.329870769230775e-05,-1.2963137884615632e-05,-6.203964230769189e-06,-3.305337115384643e-06,8.005117115384643e-06,-5.8811790384615805e-06,-2.04642,1.07155,1.71206,-1.76846,1.07155,1.91348,-1.9161666666666666,1.04738,-2.00211,-1.9927066666666666,1.0406633333333335,2.01822,-2.00211,1.07961,1.67984,-1.8262033333333334,1.0527533333333334,1.9510833333333335,1.80069,1.0702066666666665,-1.99808,1.94974,1.04335,2.02628
1.99,-7.178785384615351e-06,-4.105208653846151e-05,-3.3595673076923026e-05,-2.9793215384614843e-06,-9.896648269230727e-06,-7.246570961538432e-06,-1.0338894230769226e-05,-5.8101623076923245e-06,-2.049703703703704,1.07155,1.7087762962962962,-1.7651762962962962,1.07155,1.91348,-1.9200474074074074,1.0440962962962963,-1.9988262962962964,-1.99808,1.04335,2.021503703703704,-2.00211,1.07961,1.67984,-1.8256062962962962,1.05544,1.95377,1.7974062962962962,1.0708037037037037,-1.99808,1.94974,1.04335,2.0295555555555556
2.0,-1.8114830769230616e-05,-2.965766153846178e-05,-3.1581515384615405e-05,-1.2253e-05,-1.4073486153845272e-06,-7.372456923077055e-06,-8.586131538461847e-06,-6.726881538461406e-06,-2.048805185185185,1.07155,1.71206,-1.7632359259259258,1.0727440740740741,1.90945,-1.91751,1.04335,-1.99808,-2.00211,1.0421559259259259,2.0238918518518516,-2.000915925925926,1.0784159259259258,1.67984,-1.823218148148148,1.0542459259259258,1.94974,1.797854074074074,1.07155,-2.00211,1.948545925925926,1.044991851851852,2.025085925925926
2.0100000000000002,-2.0768153846152575e-05,-2.90379e-05,-3.522893846153835e-05,-4.648132692308387e-06,-3.486096538461307e-06,1.3944370769223822e-06,-3.428001153848585e-06,-7.1077719230772704e-06,-2.05447,1.07155,1.71206,-1.7604,1.0693111111111107,1.90945,-1.9143755555555555,1.0464844444444446,-1.9949455555555555,-1.9989755555555555,1.03932,2.0150855555555554,-2.001214444444445,1.07558,1.6767055555555554,-1.82889,1.05141,1.9466055555555555,1.7975555555555554,1.07155,-2.0052366666666672,1.9394411111111107,1.03932,2.0253844444444447
2.02,-1.9425359615384595e-05,-3.4467201923077035e-05,-3.336972115384622e-05,-1.2801740384615407e-05,-3.3376163461540006e-06,-6.910870961538517e-06,3.741104615384516e-06,-8.531259038461483e-06,-2.05045,1.0685648148148148,1.7150451851851851,-1.76443,1.07155,1.90945,-1.91348,1.0443948148148148,-1.99808,-1.983902962962963,1.0373796296296296,2.0122496296296295,-2.0031522222222224,1.07558,1.67581,-1.83291,1.05141,1.94974,1.7936748148148147,1.07155,-1.9970351851851853,1.9357096296296294,1.0403648148148148,2.0322429629629633
2.0300000000000002,-8.453789807692245e-06,-2.9218661538462045e-05,-3.03807e-05,1.0148425576922823e-05,1.9689996153844887e-06,-1.51064e-06,4.551324615390323e-07,-1.02388e-05,-2.047464814814815,1.07155,1.71206,-1.76443,1.07155,1.90945,-1.91348,1.0503651851851852,-1.9950948148148149,-1.97794,1.04335,2.021205185185185,-2.00613,1.07558,1.67581,-1.829932222222222,1.05141,1.955702962962963,1.79666,1.07155,-1.9970351851851853,1.950635555555556,1.04335,2.0203096296296295
2.04,-1.5177457692307748e-05,-3.13878e-05,-3.1200626923076935e-05,-9.877285769230593e-06,-1.8850746153845935e-06,-3.0471119230768125e-06,-1.0161331923076967e-05,-5.125860769230814e-06,-2.0513433333333335,1.07558,1.7111644444444443,-1.7675644444444443,1.0746844444444443,1.90945,-1.9103455555555557,1.05141,-1.9949455555555557,-1.98599,1.04335,2.02628,-2.0012144444444444,1.07961,1.6749144444444444,-1.8297833333333333,1.04738,1.95779,1.80069,1.0746844444444443,-1.9989755555555557,1.95377,1.04335,2.0191155555555556
2.05,-2.6287784615385607e-05,-3.1955915384617256e-05,-3.588100769230714e-05,-1.35958e-05,-7.256254615385167e-06,-7.269166153845933e-06,-1.62814e-05,9.464117692308134e-06,-2.051641111111111,1.07558,1.70803,-1.7672659259259258,1.07155,1.912285925925926,-1.91348,1.05141,-2.0009159259259257,-1.98599,1.04335,2.023444074074074,-1.99808,1.07961,1.67178,-1.835745925925926,1.0502159259259258,1.9521251851851853,1.8063548148148145,1.07155,-2.004938888888889,1.9509340740740742,1.0405140740740741,2.0279148148148147
2.06,-4.26401557692311e-06,-3.796622884615378e-05,-3.729482884615378e-05,-9.770782884615484e-06,-6.71074211538445e-06,-2.9696380769204315e-07,-1.97545538461512e-06,-6.00706326923067e-06,-2.0456737037037036,1.07155,1.70803,-1.7677137037037036,1.07155,1.9101962962962964,-1.90945,1.04738,-2.0053855555555558,-1.98599,1.04335,2.0229962962962964,-1.9988262962962964,1.07558,1.67581,-1.835449259259259,1.0521562962962963,1.9504862962962963,1.80069,1.06752,-2.0013637037037038,1.94974,1.04335,2.0295555555555556
2.07,-1.8970194230768963e-05,-3.8334207692306986e-05,-3.2614396153846506e-05,-8.789489807691866e-06,-5.87794788461512e-06,-7.101316153846507e-06,-1.7365919230767467e-06,-1.1129696153846506e-05,-2.04239,1.0742366666666665,1.7107166666666664,-1.7671166666666664,1.0742366666666665,1.9107933333333336,-1.9121366666666666,1.04738,-1.9994233333333336,-1.98599,1.0406633333333335,2.0289599999999997,-2.00211,1.0782666666666665,1.67581,-1.82889,1.05544,1.9564499999999998,1.80069,1.06752,-1.99808,1.9551066666666665,1.04335,2.02628
2.08,-1.6410515384614835e-05,-2.81082692307689e-05,-3.04581692307689e-05,-1.3195492307691866e-05,-8.18587615384632e-06,-1.1078e-05,-6.946377692308133e-06,-1.1723576923077033e-05,-2.04642,1.07155,1.711462962962963,-1.76443,1.074982962962963,1.910047037037037,-1.916912962962963,1.04738,-1.99808,-1.995244074074074,1.03932,2.0297044444444445,-2.006727037037037,1.076177037037037,1.675212962962963,-1.82889,1.050812962962963,1.95779,1.80471,1.06752,-2.00613,1.9571944444444445,1.04335,2.0303
2.09,-1.869585769230756e-05,-3.231743076923024e-05,-3.749495769230756e-05,-8.22461e-06,-1.386694230769244e-05,-5.53902e-06,9.683602307689662e-07,-6.113583461538661e-06,-2.0489574074074075,1.0690125925925926,1.7105674074074073,-1.76443,1.07155,1.9109425925925927,-1.9160174074074074,1.04738,-1.9955425925925927,-2.00211,1.0418574074074074,2.0237425925925927,-2.007622592592593,1.07961,1.67178,-1.8314211111111112,1.0499174074074074,1.95779,1.8072474074074074,1.0700574074074074,-2.00613,1.9512325925925926,1.04335,2.0303
2.1,-1.7898542307692514e-05,-3.217540384615368e-05,-3.366023076923088e-05,-8.98961865384614e-06,8.037368076922388e-07,-1.8850746153845603e-06,-9.34468596153842e-06,-6.30402865384614e-06,-2.0508966666666666,1.07155,1.7129555555555556,-1.7648777777777778,1.0719977777777778,1.90945,-1.91751,1.0478277777777778,-1.99808,-2.0016622222222225,1.0478277777777778,2.0146377777777777,-2.0052355555555557,1.07961,1.67178,-1.82889,1.05141,1.95779,1.8042633333333333,1.0711022222222222,-2.0016622222222225,1.9501877777777779,1.0437977777777778,2.02628
2.11,-1.968359038461512e-05,-3.2514367307692265e-05,-3.531936346153837e-05,-1.0968309038462508e-05,-5.513199807692132e-06,1.458996153845801e-06,-5.296931538461318e-06,-2.4951448076924398e-06,-2.05447,1.073938148148148,1.7177318518518518,-1.76846,1.07558,1.9118381481481481,-1.91751,1.05141,-2.000468148148148,-1.99808,1.049021851851852,2.020608148148148,-2.000468148148148,1.07961,1.67178,-1.82889,1.053798148148148,1.95779,1.80069,1.06752,-2.000468148148148,1.95377,1.044991851851852,2.028662222222222
2.12,-1.3660357692306699e-05,-3.4906146153846256e-05,-3.38474000000009e-05,-9.19297538461598e-06,-5.13231653846263e-06,-8.160052692308685e-06,7.120683846155334e-06,-1.0568046153846254e-05,-2.0547685185185185,1.07558,1.71206,-1.76846,1.07558,1.9172114814814813,-1.91751,1.0511114814814813,-1.9977814814814814,-1.99808,1.0470814814814813,2.0219514814814814,-2.0018114814814814,1.07558,1.6755114814814813,-1.82486,1.05544,1.95779,1.7969585185185186,1.0712514814814813,-2.00211,1.9500385185185187,1.04335,2.030002222222222
2.13,-9.309179230769188e-06,-2.6972053846154066e-05,-3.009668461538468e-05,-1.3337569230769188e-05,2.2336861538462197e-06,-6.571943076923253e-06,-3.75723769230756e-06,4.015468461538373e-06,-2.0585,1.07558,1.71206,-1.76846,1.0733411111111113,1.91348,-1.91751,1.04738,-1.99405,-1.9913633333333336,1.0411111111111113,2.0159811111111114,-1.99808,1.0778188888888887,1.67178,-1.82486,1.05544,1.9600288888888886,1.8029233333333332,1.06752,-1.9998711111111114,1.956003333333333,1.04335,2.02628
2.14,-1.1991515384615542e-05,-3.241431730769199e-05,-2.926065000000047e-05,-2.795333269231712e-06,-6.358902692308007e-06,-1.356997692307734e-05,-8.84113596153799e-06,-1.123298846153867e-05,-2.0585,1.07155,1.7119107407407406,-1.76443,1.07155,1.90945,-1.91751,1.04738,-2.002258888888889,-1.9740592592592594,1.0394692592592594,2.0185185185185186,-1.9982292592592594,1.07961,1.67581,-1.82486,1.05141,1.95779,1.80471,1.0676692592592594,-2.00211,1.957641111111111,1.04335,2.026428888888889
2.15,-1.674870980392161e-05,-3.4237958823529394e-05,-3.6930141176470607e-05,-9.731968823529389e-06,-5.038768627451003e-06,-1.3822866666666494e-06,-1.9319105882353057e-06,-1.2466913725490224e-05,-2.0585,1.07155,1.70803,-1.76443,1.07155,1.90945,-1.91751,1.04738,-2.004045555555556,-1.9800244444444444,1.04335,2.02628,-2.00211,1.07961,1.67581,-1.82486,1.05141,1.95779,1.80471,1.07155,-2.0041944444444444,1.95377,1.04335,2.0303
2.16,-1.82956e-05,-2.93736e-05,-3.50805e-05,-8.56031e-06,-4.53193e-06,-7.21752e-06,1.17494e-06,-5.70687e-06,-2.05447,1.07155,1.70803,-1.7604,1.07155,1.90945,-1.91348,1.04738,-1.99808,-1.99002,1.04335,2.0303,-2.00613,1.07961,1.67581,-1.82889,1.05544,1.95779,1.80069,1.06752,-2.00211,1.95377,1.04335,2.02225
2.17,-1.6110258823529537e-05,-3.37377e-05,-3.0920490196078657e-05,-1.3289707843137729e-05,-6.2894082352943065e-06,-4.367371176470462e-06,-8.974998235294307e-06,-8.47473941176477e-06,-2.05447,1.07155,1.70803,-1.7604,1.07558,1.9113903703703703,-1.9154203703703703,1.04738,-2.0000203703703705,-1.98599,1.04335,2.0303,-2.00613,1.0776696296296298,1.67581,-1.82486,1.05544,1.95377,1.7987496296296297,1.0694603703703702,-2.00211,1.95377,1.04335,2.02225
2.18,-1.3495709615384505e-05,-2.7110878846153867e-05,-3.0703488461538375e-05,-9.996713461538528e-06,1.93672307693631e-08,-6.830169038461186e-06,-4.0348357692308135e-06,-6.049025769230814e-06,-2.05447,1.0754307407407409,1.70803,-1.7642807407407408,1.0716992592592591,1.917360740740741,-1.921390740740741,1.04738,-2.005981111111111,-1.9898707407407408,1.04335,2.0303,-2.00613,1.07558,1.67581,-1.8287407407407408,1.05544,1.95377,1.8005407407407408,1.0676692592592592,-2.00211,1.95377,1.04335,2.0261307407407405
2.19,-2.2298138461538573e-05,-3.735293076923081e-05,-3.4292884615384684e-05,8.134266923078026e-07,-7.398281538461626e-06,-6.158776153846374e-06,-3.963824615384748e-06,-8.03093923076934e-06,-2.05447,1.0778188888888889,1.70803,-1.766221111111111,1.0711022222222222,1.91348,-1.923331111111111,1.0496188888888889,-2.0043433333333334,-1.9895722222222223,1.04335,2.0303,-2.00613,1.077371111111111,1.67581,-1.82889,1.05141,1.94974,1.8024766666666667,1.07155,-2.003896666666667,1.951978888888889,1.04335,2.02628
2.2,-1.494505384615389e-05,-3.321483076923064e-05,-3.40734e-05,-1.0251711538461627e-05,-1.7236803846156933e-06,-5.03548e-07,-1.0426065384615517e-05,-5.029024230769187e-06,-2.0507477777777776,1.07558,1.70803,-1.7647285185185182,1.0718485185185183,1.9097485185185183,-1.92557,1.04738,-2.00211,-1.99405,1.04335,2.0303,-2.00613,1.07961,1.6795414814814817,-1.8251585185185182,1.0551414814814817,1.9534714814814818,1.8009877777777776,1.07155,-2.0024077777777776,1.9460085185185183,1.0396185185185183,2.02628
2.21,-1.4118717307692281e-05,-3.133939615384615e-05,-3.6810646153846176e-05,-8.079358076923068e-06,-1.1981836538461495e-05,1.1620357692305484e-07,-1.12459e-05,-4.270471346153859e-06,-2.05045,1.07155,1.7096718518518517,-1.76846,1.0691618518518518,1.91348,-1.9198981481481483,1.04738,-1.9997218518518518,-1.9924081481481482,1.0409618518518517,2.0246381481481484,-2.00613,1.0779681481481482,1.67984,-1.8265018518518517,1.05141,1.95377,1.7983018518518517,1.0699081481481483,-2.000468148148148,1.94571,1.04335,2.02628
2.22,-1.2624184615384284e-05,-2.318251730769244e-05,-3.298883076923024e-05,1.344733057693009e-05,5.03548e-07,-5.051614999999537e-06,6.04257e-06,-5.164590961538197e-06,-2.0540233333333333,1.0751322222222224,1.7156422222222223,-1.76846,1.0751322222222224,1.91348,-1.91751,1.04738,-2.00211,-1.9864377777777775,1.04335,2.0258322222222223,-2.00613,1.07558,1.67984,-1.8324633333333336,1.05141,1.9501877777777776,1.7971077777777775,1.06752,-2.0016622222222225,1.9421277777777777,1.04335,2.0226977777777777
2.23,-2.3485957692306897e-05,-2.8521438461537667e-05,-3.198173076923117e-05,-1.0664882692306798e-05,-6.132950769231166e-06,-1.0690703846154541e-05,3.2020434615379655e-06,-2.7953380769227295e-06,-2.051938888888889,1.07155,1.7135525925925925,-1.76846,1.0740874074074074,1.90945,-1.9160174074074074,1.04738,-2.00211,-1.9889751851851851,1.0408125925925926,2.0167274074074073,-2.00613,1.07558,1.67581,-1.8314211111111112,1.05544,1.95377,1.79666,1.07155,-2.00211,1.9472025925925927,1.03932,2.0237425925925927
2.24,-1.4990199999999206e-05,-3.1646030769230244e-05,-3.673317692307674e-05,-1.2640346153846507e-05,-4.880541538461627e-06,-1.0974755384633027e-06,1.5235515384616267e-06,-3.3440692307691426e-06,-2.05447,1.07155,1.7126570370370369,-1.76846,1.07155,1.9060170370370368,-1.91348,1.050812962962963,-2.00211,-1.99405,1.04335,2.01419,-2.00613,1.07558,1.67581,-1.82889,1.052007037037037,1.950337037037037,1.79666,1.068117037037037,-1.998677037037037,1.94974,1.042752962962963,2.022847037037037
2.25,-5.52934307692258e-06,-3.464150769230813e-05,-3.4628596153845935e-05,-5.209779038461869e-06,-2.7985659615385167e-06,-2.51774e-06,-6.88182e-06,-8.114861923077033e-06,-2.049106666666667,1.0702066666666668,1.71206,-1.7657733333333332,1.0728933333333333,1.90945,-1.9121366666666668,1.04335,-1.99808,-1.9927066666666666,1.03932,2.0168766666666667,-2.00345,1.0782666666666667,1.67581,-1.8342533333333333,1.05141,1.9524266666666668,1.7993466666666666,1.0702066666666668,-2.00211,1.94974,1.0420066666666667,2.0249366666666666
2.2600000000000002,-2.8088901923078465e-05,-3.55388596153866e-05,-3.3201871153845936e-05,-6.681691153845933e-06,-4.3995867307689e-06,-4.389900961534051e-07,-2.85344e-06,-5.332439423077805e-06,-2.049703703703704,1.06752,1.7153437037037038,-1.76846,1.06752,1.90945,-1.912733703703704,1.04335,-1.99808,-1.986736296296296,1.03932,2.0255337037037036,-2.00613,1.07558,1.67581,-1.8336562962962961,1.05141,1.94974,1.79666,1.06752,-1.9988262962962962,1.94974,1.03932,2.02225
2.27,-2.4234807692307647e-05,-2.994170769230765e-05,-3.120703846153853e-05,-1.0096815384615397e-05,-4.8159823076924295e-06,-6.985112307692351e-06,-9.141329230769264e-06,-7.0625815384614725e-06,-2.0492559259259258,1.07155,1.71206,-1.7672659259259258,1.06752,1.90945,-1.9146740740740742,1.04738,-2.004938888888889,-1.983154074074074,1.03932,2.02628,-2.01016,1.0727440740740741,1.6770040740740741,-1.82889,1.05141,1.9525759259259259,1.79263,1.06752,-2.0009159259259257,1.94974,1.03932,2.02225
2.2800000000000002,-1.0613234615384847e-05,-2.7733834615384847e-05,-3.687520384615454e-05,7.830809230768884e-06,-8.521575384615154e-06,-3.486096538461307e-06,-9.038011538415227e-08,-1.4525392307688834e-06,-2.049554444444445,1.0746844444444446,1.71206,-1.76443,1.0706544444444446,1.9125844444444446,-1.9206444444444446,1.04738,-2.00211,-1.9828555555555554,1.03932,2.02628,-2.013294444444445,1.0724455555555554,1.6767055555555554,-1.82889,1.05141,1.9528744444444446,1.7957644444444445,1.0706544444444446,-1.99808,1.9528744444444446,1.03932,2.02225
2.29,-1.5119361538461628e-05,-3.1684765384615696e-05,-3.4163780769230815e-05,2.963182692308156e-06,-5.200095769230891e-06,-5.939278653846595e-07,-6.9140988461537795e-06,-1.1442769230769285e-05,-2.05045,1.0745351851851852,1.70803,-1.7614448148148147,1.07155,1.91348,-1.92557,1.0443948148148148,-1.99808,-1.9840496296296295,1.04335,2.0292577777777776,-2.00613,1.0725948148148148,1.67984,-1.82486,1.05141,1.95377,1.7977048148148147,1.07155,-2.0001670370370372,1.9486951851851853,1.0423051851851852,2.0252351851851853
2.3000000000000003,-1.2314311538461474e-05,-3.181712692307648e-05,-3.1113448076923016e-05,-1.1262007692307501e-05,-5.03548e-06,-6.82371442307629e-06,-1.2072226538457736e-06,-5.293704423077177e-06,-2.05045,1.0745351851851852,1.70803,-1.7614448148148147,1.0745351851851852,1.9104948148148149,-1.9225848148148148,1.0503651851851852,-1.99808,-1.99002,1.0463351851851852,2.0232948148148147,-2.0031522222222224,1.07558,1.67984,-1.8278451851851851,1.05141,1.9507848148148148,1.806652962962963,1.0685648148148148,-2.000167037037037,1.9486951851851853,1.0423051851851852,2.0252351851851853
2.31,-8.366638076923188e-06,-2.3847461538461624e-05,-3.1278096153846124e-05,-7.10777192307689e-06,2.7372361538462198e-06,-8.147141923076967e-06,5.016112692307703e-06,-1.96254384615378e-06,-2.0513433333333335,1.07155,1.71206,-1.7653255555555556,1.0724455555555557,1.9125844444444444,-1.91348,1.04738,-1.99808,-1.99002,1.0442455555555556,2.02225,-2.00211,1.07961,1.6767055555555557,-1.82889,1.05544,1.94571,1.80069,1.07155,-1.99808,1.9425755555555557,1.0442455555555556,2.025384444444444
2.32,-2.1265253846154065e-05,-3.0161246153844942e-05,-3.37377e-05,1.8463430769259438e-06,-6.54612e-06,-8.095496153848139e-06,-1.1491184615385718e-06,-6.88182e-06,-2.060141851851852,1.0687140740740741,1.71206,-1.76846,1.0784159259259258,1.906614074074074,-1.91348,1.04738,-1.99808,-1.992855925925926,1.0445440740740741,2.02225,-2.004938888888889,1.07961,1.6770040740740741,-1.82889,1.05544,1.9513818518518518,1.797854074074074,1.07155,-2.0009159259259257,1.94571,1.0445440740740741,2.0194140740740743
2.33,-1.748862884615378e-05,-2.729484230769244e-05,-3.320187115384622e-05,-1.432530192307646e-05,-3.5958494230771217e-06,-1.2395001153844831e-06,-1.285338653846134e-05,-9.102594615384881e-06,-2.06253,1.07155,1.71206,-1.76443,1.07558,1.9101962962962964,-1.91751,1.0481262962962963,-1.99808,-1.99405,1.0426037037037037,2.02628,-2.00211,1.07558,1.6783474074074072,-1.8263507407407409,1.0546937037037036,1.9530237037037037,1.79666,1.0748337037037037,-2.0013637037037038,1.94974,1.0426037037037037,2.0229962962962964
2.34,-8.27948403846158e-06,-2.9696388461538956e-05,-3.5519492307692635e-05,-1.3708742307692266e-05,-6.662323846153681e-06,-1.6203880769231597e-06,-8.876636538464433e-07,-3.8056559615384204e-06,-2.0598433333333337,1.0742366666666665,1.71206,-1.7671166666666664,1.07558,1.9107933333333336,-1.91751,1.0487233333333335,-2.000766666666667,-1.9967366666666666,1.0420066666666665,2.0182200000000003,-2.00211,1.07558,1.6744666666666665,-1.83291,1.05141,1.9470533333333335,1.79666,1.07155,-1.99808,1.94974,1.0420066666666665,2.0289599999999997
2.35,-1.7004446153845935e-05,-2.7359399999998568e-05,-3.585514615384643e-05,-9.73526e-06,-2.81470538461555e-06,-9.464117692308134e-06,-6.7268807692299965e-06,-1.02388e-05,-2.057902962962963,1.07558,1.70803,-1.767862962962963,1.074982962962963,1.9128829629629631,-1.916912962962963,1.04738,-2.001512962962963,-1.9934529629629631,1.043947037037037,2.014787037037037,-2.00211,1.07558,1.676407037037037,-1.836342962962963,1.054842962962963,1.9543655555555555,1.7972570370370369,1.068117037037037,-2.00211,1.95377,1.042752962962963,2.0268755555555553
2.36,-1.8166484615384882e-05,-2.7553073076922682e-05,-3.42734884615384e-05,-8.32144653846134e-06,-3.65394538461512e-06,-7.966381153846682e-06,3.06002461538488e-06,-2.11102653846134e-06,-2.05447,1.0730425925925926,1.7105674074074073,-1.76443,1.0690125925925926,1.90945,-1.9160174074074074,1.04738,-2.0006174074074075,-1.99002,1.04738,2.0232948148148147,-2.00211,1.0781174074074074,1.6773025925925926,-1.8303788888888888,1.05141,1.9603274074074073,1.8032211111111112,1.0690125925925926,-2.00211,1.9512325925925926,1.0418574074074074,2.0303
2.37,-1.471264807692354e-05,-3.228515192307646e-05,-2.7269069230768615e-05,-3.3214776923073064e-06,-1.49386e-05,-6.9592892307686135e-06,-1.8786221923087729e-06,-4.53193e-06,-2.054917777777778,1.07155,1.7125077777777777,-1.76846,1.07155,1.909897777777778,-1.913927777777778,1.0469322222222222,-1.99808,-1.99002,1.04335,2.033882222222222,-2.00211,1.07961,1.67178,-1.82889,1.0509622222222221,1.95779,1.80471,1.06349,-1.99808,1.9501877777777779,1.04335,2.0258322222222223
2.38,-1.4364036538461626e-05,-3.223031346153877e-05,-3.40734e-05,-6.549347884615694e-06,-6.885047884615693e-06,-2.85344e-06,-1.1271673076923253e-05,-4.583573269231122e-06,-2.0561118518518517,1.07155,1.7137018518518519,-1.76846,1.07155,1.91348,-1.91751,1.045738148148148,-2.000468148148148,-1.9876318518518519,1.04335,2.0303,-2.00211,1.07961,1.67178,-1.82889,1.049768148148148,1.9530196296296298,1.80471,1.065878148148148,-1.99808,1.951381851851852,1.04335,2.02225
2.39,-1.6442746153846256e-05,-3.3750611538461343e-05,-3.5067588461538654e-05,-1.187856538461598e-05,1.49772846153866e-06,-4.84826269230799e-06,-1.4628723076922681e-05,3.163308076926055e-07,-2.054172222222222,1.07558,1.71206,-1.7721914814814812,1.07155,1.91348,-1.9178085185185187,1.05141,-2.00211,-1.98599,1.0430514814814813,2.022548518518519,-2.00211,1.0758785185185187,1.6720785185185187,-1.82889,1.05544,1.9500385185185187,1.804412222222222,1.0678185185185187,-1.9983785185185188,1.9500385185185187,1.04335,2.02628
2.4,-2.2504661538461624e-05,-2.87022e-05,-3.278224615384593e-05,2.5693830769237165e-06,-5.229145384615562e-06,-5.681050769232313e-07,2.0271015384616265e-06,-1.2537053846154066e-05,-2.048211111111111,1.07558,1.7098211111111112,-1.7706988888888886,1.07155,1.91348,-1.92154,1.0491711111111113,-2.0043433333333334,-1.98599,1.0415588888888887,2.028513333333333,-2.00211,1.07961,1.67581,-1.82889,1.0532011111111113,1.95377,1.7984511111111112,1.07155,-2.00211,1.95377,1.04335,2.02628
2.41,-1.878618846153867e-05,-3.10521e-05,-3.3414911538461326e-05,-1.2611299999998271e-05,-4.2091415384613295e-06,-1.0300135000000367e-05,-3.8734415384613295e-06,-9.890193653846363e-06,-2.05045,1.0757292592592593,1.70803,-1.7683107407407406,1.07155,1.91751,-1.92557,1.04738,-2.00613,-1.98599,1.0394692592592594,2.0303,-2.00211,1.07558,1.67581,-1.83291,1.0515592592592593,1.9536207407407407,1.80069,1.07155,-2.00211,1.94974,1.0434992592592593,2.02628
2.42,-1.5066943137254919e-05,-3.214477058823531e-05,-3.3230858823529395e-05,-9.103354117647043e-06,-3.110149215686309e-06,-1.3954532941177215e-06,-7.882330196078386e-06,1.221023921568656e-06,-2.05045,1.0775203703703704,1.70803,-1.76443,1.0736396296296296,1.913330740740741,-1.9234803703703705,1.04738,-2.004045555555556,-1.98599,1.0454396296296296,2.0282155555555557,-2.0041944444444444,1.0776696296296295,1.67581,-1.8308255555555555,1.05544,1.94974,1.7986003703703703,1.07155,-2.00211,1.94974,1.04738,2.0241903703703703
2.43,-4.19623e-06,-2.61845e-05,-3.27306e-05,-1.12459e-05,-1.51064e-06,-4.19623e-06,1.2253e-05,-8.89601e-06,-2.05447,1.07558,1.70803,-1.76443,1.07155,1.90945,-1.91751,1.04738,-2.00613,-1.98599,1.04738,2.02225,-2.01016,1.07961,1.67984,-1.82889,1.05544,1.95377,1.79666,1.06752,-1.99808,1.95377,1.04335,2.02225
2.44,-1.703502941176477e-05,-3.675241764705908e-05,-3.2566041176470456e-05,-6.6613137254906055e-06,-8.724868823529537e-06,-3.0245786274508543e-06,1.5962105882352311e-06,-4.571424117647154e-06,-2.0523855555555555,1.07558,1.7059455555555556,-1.76443,1.07155,1.91348,-1.9154203703703705,1.04738,-2.0041944444444444,-1.98599,1.0454396296296296,2.0282155555555557,-2.00613,1.0776696296296295,1.67984,-1.8268003703703704,1.05544,1.95377,1.80069,1.06752,-2.00211,1.9558544444444443,1.04335,2.02628
2.45,-1.8967e-05,-3.017416538461512e-05,-3.3389088461538376e-05,-9.244621538461627e-06,-1.1594511538461627e-05,-7.204608461538373e-06,-1.6307223076923255e-05,-7.12391134615378e-06,-2.050598888888889,1.0716992592592591,1.70803,-1.76443,1.0754307407407409,1.91348,-1.91751,1.0434992592592591,-2.005981111111111,-1.9898707407407408,1.04335,2.0303,-2.00613,1.0794607407407408,1.6759592592592591,-1.825009259259259,1.051559259259259,1.9576411111111112,1.80069,1.06752,-2.00211,1.95377,1.04335,2.02628
2.46,-1.8837884615384308e-05,-2.852143846153837e-05,-3.4460707692307756e-05,-2.409279230769149e-05,-5.551930769228562e-07,-4.402814615384593e-06,-6.417004615384594e-06,-8.67651384615378e-06,-2.05045,1.07155,1.70803,-1.7604,1.07155,1.91348,-1.9170622222222222,1.045141111111111,-1.99808,-1.98599,1.041111111111111,2.028513333333333,-2.0003188888888888,1.07961,1.67581,-1.82083,1.0536488888888889,1.95779,1.8024766666666667,1.069758888888889,-2.00211,1.95377,1.04335,2.02225
