X [s],L_Quad: EMG 1 [Volts],L_Hamstrings: EMG 2 [Volts],L_AnteriorTibialis: EMG 3 [Volts],L_Calf: EMG 4 [Volts],R_Quad: EMG 5 [Volts],R_Hamstrings: EMG 6 [Volts],R_AnteriorTibialis: EMG 7 [Volts],R_Calf: EMG 8 [Volts],L_Quad: Acc 1.X [g],L_Quad: Acc 1.Y [g],L_Quad: Acc 1.Z [g],L_Hamstrings: Acc 2.X [g],L_Hamstrings: Acc 2.Y [g],L_Hamstrings: Acc 2.Z [g],L_AnteriorTibialis: Acc 3.X [g],L_AnteriorTibialis: Acc 3.Y [g],L_AnteriorTibialis: Acc 3.Z [g],L_Calf: Acc 4.X [g],L_Calf: Acc 4.Y [g],L_Calf: Acc 4.Z [g],R_Quad: Acc 5.X [g],R_Quad: Acc 5.Y [g],R_Quad: Acc 5.Z [g],R_Hamstrings: Acc 6.X [g],R_Hamstrings: Acc 6.Y [g],R_Hamstrings: Acc 6.Z [g],R_AnteriorTibialis: Acc 7.X [g],R_AnteriorTibialis: Acc 7.Y [g],R_AnteriorTibialis: Acc 7.Z [g],R_Calf: Acc 8.X [g],R_Calf: Acc 8.Y [g],R_Calf: Acc 8.Z [g]
0.0,0.0,0.0,0.0,0.0,0.0,0.0,0.0,0.0,0.0,0.0,0.0,0.0,0.0,0.0,0.0,0.0,0.0,0.0,0.0,0.0,0.0,0.0,0.0,0.0,0.0,0.0,0.0,0.0,0.0,0.0,0.0,0.0
0.01,0.0,0.0,0.0,0.0,0.0,0.0,0.0,0.0,0.0,0.0,0.0,0.0,0.0,0.0,0.0,0.0,0.0,0.0,0.0,0.0,0.0,0.0,0.0,0.0,0.0,0.0,0.0,0.0,0.0,0.0,0.0,0.0
0.02,0.0,0.0,0.0,0.0,0.0,0.0,0.0,0.0,0.0,0.0,0.0,0.0,0.0,0.0,0.0,0.0,0.0,0.0,0.0,0.0,0.0,0.0,0.0,0.0,0.0,0.0,0.0,0.0,0.0,0.0,0.0,0.0
0.03,0.0,0.0,0.0,0.0,0.0,0.0,0.0,0.0,0.0,0.0,0.0,0.0,0.0,0.0,0.0,0.0,0.0,0.0,0.0,0.0,0.0,0.0,0.0,0.0,0.0,0.0,0.0,0.0,0.0,0.0,0.0,0.0
0.04,0.0,0.0,0.0,0.0,0.0,0.0,0.0,0.0,0.0,0.0,0.0,0.0,0.0,0.0,0.0,0.0,0.0,0.0,0.0,0.0,0.0,0.0,0.0,0.0,0.0,0.0,0.0,0.0,0.0,0.0,0.0,0.0
0.05,0.0,0.0,0.0,0.0,0.0,0.0,0.0,0.0,0.0,0.0,0.0,0.0,0.0,0.0,0.0,0.0,0.0,0.0,0.0,0.0,0.0,0.0,0.0,0.0,0.0,0.0,0.0,0.0,0.0,0.0,0.0,0.0
0.06,0.0,0.0,0.0,0.0,0.0,0.0,0.0,0.0,0.0,0.0,0.0,0.0,0.0,0.0,0.0,0.0,0.0,0.0,0.0,0.0,0.0,0.0,0.0,0.0,0.0,0.0,0.0,0.0,0.0,0.0,0.0,0.0
0.07,0.0,0.0,0.0,0.0,0.0,0.0,0.0,0.0,0.0,0.0,0.0,0.0,0.0,0.0,0.0,0.0,0.0,0.0,0.0,0.0,0.0,0.0,0.0,0.0,0.0,0.0,0.0,0.0,0.0,0.0,0.0,0.0
0.08,0.0,0.0,0.0,0.0,0.0,0.0,0.0,0.0,0.0,0.0,0.0,0.0,0.0,0.0,0.0,0.0,0.0,0.0,0.0,0.0,0.0,0.0,0.0,0.0,0.0,0.0,0.0,0.0,0.0,0.0,0.0,0.0
0.09,0.0,0.0,0.0,0.0,0.0,0.0,0.0,0.0,0.6687100000000001,0.279301,-0.5357733333333333,0.6848233333333333,0.4458066666666667,0.39881000000000005,-0.6029133333333334,0.5089199999999999,-0.6525966666666666,0.62037,0.25244533333333335,-0.6740833333333334,-0.6499133333333333,0.28467233333333336,0.66737,-0.5706866666666667,0.35987,0.5599466666666667,0.5706866666666667,0.326299,-0.6660266666666667,-0.6633399999999999,0.27661566666666665,0.65797
0.1,-1.92032910525303e-05,-4.00983478737733e-05,-4.71656e-05,-9.711020910140445e-06,-1.6475813122955492e-06,-9.019644750817803e-06,-7.093881169905691e-06,-6.559426561477746e-06,1.9339211111111112,0.890421074074074,-1.6861044444444444,1.9067685185185184,1.3308607407407407,1.27849,-1.7529414814814814,1.4381325925925927,-2.007029259259259,1.913632962962963,0.79016,-2.012398888888889,-1.9562992592592592,0.8507349259259259,2.0283633333333335,-1.7055007407407408,1.109147037037037,1.6240333333333334,1.6989333333333334,0.9854611481481481,-1.9751022222222223,-2.019565185185185,0.813435,1.9574996296296296
0.11,-8.659920404624272e-06,-2.90379e-05,-4.55673631984586e-05,-7.1059419267822585e-06,-1.0425085876685945e-05,-5.77511107899808e-06,-5.1903865510597534e-06,-1.25887e-05,1.9771918518518519,0.9987411851851852,-1.7709933333333334,1.7896488888888888,1.2801333333333333,1.5187033333333333,-1.6588014814814815,1.1943422222222222,-0.8425300000000002,2.0064355555555555,0.8208944814814815,-2.019261851851852,-1.9758474074074075,0.8552104814814815,-2.0420944444444444,-1.7087833333333333,1.1709137037037036,1.567192222222222,1.6593944444444446,1.0026185555555556,-1.919297037037037,-0.8353685185185185,0.805676,1.8951270370370372
0.12,-9.679739269230772e-06,-1.535047807692309e-05,-4.2613091538461524e-05,-7.926353461538464e-06,-5.651350384615388e-06,-4.9425158076923105e-06,3.8424538461538505e-06,-7.66425034615384e-06,-1.1252577777777755,1.3468266666666664,1.1937411111111094,1.9273544444444444,1.0858733333333335,1.8033722222222222,-1.8011333333333333,1.0191812222222223,2.0294066666666666,2.010607777777778,0.9036998888888887,1.0702044444444425,-2.021348888888889,0.8361132222222222,-2.0097122222222223,-1.7357844444444444,1.2340277777777777,1.4981077777777778,1.6113555555555557,1.0142544444444443,-1.8821455555555557,2.028516666666667,0.79001,1.829781111111111
0.13,2.2706234104046254e-05,-1.7835710404624278e-05,-8.994973583815032e-06,-1.0027295895953758e-05,-2.7360357225433504e-07,-3.52483e-06,-6.529623468208085e-07,3.18914e-06,-2.034034074074074,1.7142962962962962,1.149732,-1.9395933333333333,0.7804618518518519,1.8709637037037037,1.7906933333333332,0.44983625925925924,-1.7535377777777779,1.0631933333333334,1.2217977777777778,1.7207155555555556,2.035078888888889,0.7621101481481481,-1.9797237037037037,-1.74832,1.2720744444444443,1.4308188888888889,1.5188496296296297,1.0018767037037037,-1.9095992592592592,1.9664496296296297,0.7215280000000001,1.7760674074074074
0.14,-1.2480041502890311e-05,-1.968005144508663e-05,-4.344579653179181e-05,-8.472989190751433e-06,-7.111764797687858e-06,-1.0876229710982537e-06,-3.4743842774566166e-06,-6.37827e-06,-1.962419259259259,1.5591333333333326,0.7319720000000001,-1.6889340740740735,0.6073907407407404,1.8142674074074072,1.563908148148148,0.18426144444444445,-1.484982222222222,-1.4523029629629616,1.8245607407407423,1.3298118518518511,1.9753974074074072,0.6994464444444443,-1.9110940740740738,-1.7334014814814815,1.2929633333333332,1.3651744444444442,1.4173977777777778,0.9660655925925925,-1.9125844444444444,1.9097533333333332,0.6260405925925924,1.7104229629629628
0.15,-7.61125680769231e-05,-3.086746500000003e-05,-4.2036585769230764e-05,-1.0015439269230777e-05,-1.0797180730769214e-05,-7.329849269230775e-06,-7.440889615384608e-06,-7.478333076923072e-06,-1.953317777777778,1.0925902222222221,1.2859522222222222,-1.4819966666666666,0.6691591111111111,1.7107155555555555,1.6793855555555557,0.42521766666666666,-1.5925544444444444,-1.2179166666666668,1.7407077777777777,1.076918888888889,1.931381111111111,0.6284273333333333,-1.7375766666666665,-1.710271111111111,1.3038544444444444,1.2707277777777777,1.3047466666666667,0.8831107777777778,-1.8427577777777777,1.9076644444444444,0.5465168888888889,1.6561100000000002
0.16,-2.3361457996146466e-05,-2.4686736416184947e-05,-3.5466005202312135e-05,-8.610115202312136e-06,-1.6351530057803388e-06,-6.9814304046242704e-06,1.0320011175337171e-06,-6.048070944123346e-06,0.7897103703703703,0.7789696666666667,-0.8611762962962966,-1.440965925925926,0.9053415555555556,1.5504774074074075,-0.9248885185185185,0.7103375555555556,-1.8378351851851853,0.8450625925925923,0.402241925925926,1.444252962962963,1.943321851851852,0.5803852592592593,-1.4849837037037037,-1.7125107407407407,1.3217577777777778,1.1780751851851852,1.26088,0.7816552592592593,-1.7841222222222222,1.9806225925925927,0.49653548148148147,1.6265714814814816
0.17,-2.3059907692307156e-06,-3.637423615384625e-05,-3.1325824615384645e-05,-8.293041153846161e-06,-3.2511094615384347e-06,-1.1813993230769566e-06,-2.1575080769231238e-06,-7.043214230769197e-06,1.6393985185185183,0.508919074074074,-1.398448148148148,-1.494377037037037,1.0044066666666667,1.4403688888888888,-1.5140725925925924,0.9894900000000001,1.9512274074074072,1.248202222222222,0.0,1.8414185185185186,1.2335818518518487,0.515931,-1.1534625925925925,-1.7439896296296296,1.3451796296296297,1.1003488888888888,1.3101218518518518,0.6985511111111111,-1.8293359259259259,-2.0297085185185186,0.4301419629629629,1.609112962962963
0.18,4.436813333333329e-05,-4.347296666666657e-05,-3.228303333333335e-05,-9.511459999999989e-06,2.629640000000006e-06,-7.273453333333454e-07,-8.840059999999997e-06,-1.465883333333332e-05,1.2058266666666668,0.3988096666666667,-1.4730466666666666,-1.5898666666666668,0.9077286666666666,1.53616,-1.0796066666666666,1.1037766666666666,1.69192,1.2810226666666666,0.07519666666666666,1.9524266666666668,-1.8449966666666666,0.5478596666666666,-1.1642033333333335,-1.7657733333333332,1.36965,1.0433533333333334,1.37099,0.625742,-1.8275433333333333,-1.9577966666666666,0.3719536666666667,1.5750966666666666
0.19,-1.825643198458491e-06,-2.5582583236994196e-05,-2.9758458381502902e-05,-9.579699595375725e-06,-4.818471618497099e-06,-1.1869083815027755e-07,-2.951756030828539e-06,1.3385866897880143e-06,1.3433881481481482,0.6060478518518518,1.9661507407407408,-1.7847218518518517,0.674978,1.7254903703703703,-1.0336507407407407,1.1364492592592594,1.7401103703703702,-1.9085581481481482,0.4000031111111111,-1.8919948148148147,-1.4297803703703704,0.6752762222222223,-1.561075925925926,-1.7556266666666667,1.3515925925925927,1.0215666666666667,1.349205925925926,0.6090313703703704,-1.733394074074074,-1.9683844444444445,0.37389325925925926,1.4537966666666666
0.2,-4.076217398843935e-05,-2.6849058381502964e-05,-3.521726184971098e-05,-2.0665664739864995e-07,-3.0523373988439353e-06,-1.51064e-06,-1.535867676300532e-06,2.551699190751076e-07,1.886475925925926,0.7571862222222222,1.5243722222222222,0.4396888888888888,0.4249195555555556,1.7411518518518518,-1.309967037037037,1.0575248148148149,1.9749533333333333,-1.5284007407407407,0.5680019259259259,-1.2064237037037038,-1.2763992592592592,0.8487949259259259,-1.9912162962962963,-1.6977437037037038,1.2944559259259258,1.0606577777777777,1.212392222222222,0.7328670740740741,-1.8366437037037038,0.5378633333333336,0.5253312222222222,1.3868048148148149
0.21,-3.362515317919078e-05,-3.39055e-05,-3.3811437572254376e-05,-9.4199304046242e-06,-6.582988786127187e-06,-4.19623e-06,1.305926763005761e-06,-4.3825143930635935e-06,-1.8508188888888888,0.8844534444444445,1.3763655555555556,1.3141477777777777,0.2439411111111111,1.6811811111111112,-1.8441033333333334,0.8607304444444444,1.9747988888888888,-1.6722244444444445,0.6942248888888889,-0.8128383333333333,-1.5406344444444444,0.8499887777777778,2.0320911111111113,-1.6476111111111111,1.2814766666666666,1.0961666666666667,1.1100477777777777,0.9274226666666666,2.0428344444444444,1.9385466666666666,0.734508,1.463648888888889
0.22,-2.5817379190751458e-05,-2.8908894412331336e-05,-3.2966689595375725e-05,-1.0600379865125195e-05,-4.19623e-06,-4.53193e-06,-8.859141213872814e-06,-8.814833988439324e-06,-1.6371655555555555,0.9608439629629629,1.4766292592592594,1.1303344444444445,0.5304033333333333,1.7933766666666666,0.09787296296296288,0.7139185925925926,1.841118888888889,0.3700185185185183,0.9926240000000001,-1.1900131481481482,0.371504814814815,0.7174995925925925,1.9604822222222222,-1.598668888888889,1.2898262962962963,1.1677844444444443,1.1637544444444443,0.9763604444444445,1.812472962962963,1.958837037037037,0.8872884444444444,1.6295540740740742
0.23,-1.1618468786127151e-05,-3.4134847976878584e-05,-2.852825337186898e-05,1.627069576108072e-06,-4.208519595375717e-06,-4.86763e-06,-1.610934566473996e-05,-1.3601942967244698e-05,-1.5915055555555557,1.0235055555555557,1.6116548148148149,1.356524074074073,0.9845664814814816,1.9173622222222222,1.2505933333333334,0.6437953703703704,1.7213133333333335,1.92497,1.4138096296296285,-1.6696911111111101,1.696245185185185,0.6958659259259259,1.6938577777777777,-1.5562948148148148,1.2863948148148148,1.2702811111111112,1.3286192592592594,1.0202225925925925,1.5740566666666667,-2.0056844444444444,0.9596501851851852,1.9273574074074076
0.24,-1.5835093641618497e-05,-3.123807206165703e-05,-2.9242021965317917e-05,-2.7922134104046245e-05,-8.578420982658959e-06,-4.19623e-06,1.87981408477842e-05,-6.099815857418113e-06,-1.8391833333333334,1.1973277777777778,1.7317566666666666,-1.8691666666666666,1.3732322222222222,1.8114288888888888,1.239398888888889,0.7251088888888889,1.7653244444444445,-0.2108188888888889,-1.9819644444444444,1.2926644444444446,1.4269433333333332,0.715261111111111,1.3678577777777776,-1.5003466666666667,1.1968800000000002,1.3866588888888889,1.546448888888889,1.0992966666666668,1.5330233333333332,-1.8915511111111112,0.9797916666666666,-0.08907222222222222
0.25,-1.3620379190751467e-05,-2.1665785741811107e-05,-3.167434161849706e-05,-1.0337126396917243e-05,-1.0543120038537709e-07,-2.5300295953757343e-06,-1.2762694797687866e-05,-5.905448805395019e-07,1.8737903703703704,1.3515988888888888,1.701324074074074,-1.489757037037037,1.5500362962962961,1.75548,1.581214074074074,0.8583437777777778,1.8430588888888888,-1.8332166666666667,1.5765915925925926,0.9125031111111112,1.3366725925925926,0.6102252222222222,1.2119418518518519,-1.48244,0.9345848518518519,1.5403303703703703,1.7724885185185184,1.0242559259259258,1.5658462962962962,-1.7842718518518519,1.0161944444444444,-1.5433207407407408
0.26,-2.086822403846159e-05,-1.897668365384629e-05,-4.0626005769230756e-05,-2.527421442307828e-06,4.53193e-06,-4.91120644230769e-06,-1.987558653846149e-05,-9.90311e-06,1.6380629629629628,1.4079944444444443,1.600161111111111,-1.2734125925925928,1.3990444444444443,-0.02775259259260121,0.036406666666658705,1.018880740740741,1.9433211111111113,1.775019629629629,0.8198500370370363,1.6403011111111125,1.4512644444444447,0.545473,1.349210740740741,-1.476176296296296,0.3843377407407398,1.7548814814814817,-0.09667666666667496,0.8631179999999996,1.4554351851851848,-1.8203814814814818,1.0579722222222223,-1.2744585185185182
0.27,-1.09102e-05,-3.37377e-05,-3.30663e-05,-7.88891e-06,-4.86763e-06,-5.20333e-06,1.84634e-06,-2.51774e-06,1.63955,1.34548,1.56301,-1.34548,1.38979,-1.79263,-1.38979,1.08766,2.04239,1.42605,0.616342,-1.58315,1.53481,0.535775,1.43813,-1.47036,0.0,1.97391,-1.5469,0.668711,1.17226,-2.01822,1.09572,-1.1642
0.28,-1.0823047115384585e-05,-2.6613758653846244e-05,-3.120058269230752e-05,9.554498461538342e-06,-9.188133557692293e-06,-6.620361346153756e-06,3.18914e-06,-4.18977423076917e-06,-0.026113703703726898,1.1844933333333325,1.6207537037037039,-1.2526807407407408,1.0951212222222204,-1.7790529629629634,-1.244177407407407,1.1112381481481484,1.9640629629629622,1.6987837037037061,0.8380528148148161,-1.4811029629629642,1.8960237037037053,0.575461703703704,1.5913600000000006,-1.5343674074074074,0.0,-1.7211637037037026,-1.1840459259259253,0.5885915925925924,0.9675574814814812,1.9994185185185187,1.1236214814814816,-1.2810259259259267
0.29,-8.062904797687841e-06,-3.4607673988439206e-05,-3.952542851637766e-05,-1.4752315606936478e-05,4.226953988439203e-07,-4.544219595375682e-06,-1.335936107899802e-05,-4.86763e-06,-1.567640370370372,0.9959056296296301,1.600761851851852,-1.497359999999999,0.7176485555555565,-2.026422592592592,-1.2665529629629626,1.1628574074074072,1.8199333333333336,-1.6441718518518373,1.1483914814814806,-1.8156096296296285,-1.7241481481481329,0.6348428148148146,1.697891111111111,-1.5895688888888888,0.06982531111111083,-1.507513333333334,-1.3609962962962954,0.5993338148148147,1.078557407407407,-1.7950170370370215,1.1591259259259257,-1.3878503703703702
0.3,-1.02388e-05,-3.3063378227360495e-05,-3.50805e-05,-4.942014393063598e-06,-7.330066820809207e-06,1.3237087861271952e-06,-1.0463895857418028e-05,-7.776370963391178e-06,-1.1082500000000002,0.8325321111111111,1.533471111111111,-0.18843555555556257,0.6821392222222221,1.8857300000000004,-1.4600644444444442,1.1351077777777778,1.802028888888889,-1.7268322222222219,1.2555155555555557,-1.92959,-1.9090055555555554,0.7456982222222222,1.6784955555555556,-1.6825188888888887,0.47132088888888846,-1.5867344444444442,-1.8803555555555551,0.7188424444444442,1.3544333333333332,-1.7675633333333334,1.1897133333333334,-1.2765488888888892
0.31,-1.96445429672447e-05,-3.858885606936424e-05,-3.386863487475917e-05,-2.7134306358381454e-05,-8.597178786127153e-06,-4.843050809248566e-06,-8.885661599229366e-06,-2.34989e-06,-1.0284333333333333,0.7907565555555556,1.5603248148148148,1.6959533333333334,0.8708768148148147,1.7984503703703703,-1.6659625925925925,1.0329096296296296,1.801286296296296,1.5965844444444435,1.0831877777777779,-1.869914074074074,1.657607407407406,0.7591263703703703,1.5770381481481481,-1.8593225925925925,0.741371074074074,-1.7172862962962963,1.7295148148148134,0.9956035555555556,1.3999388888888888,-1.7175818518518517,1.2299948148148148,-1.0661822222222221
0.32,-1.24208e-05,-3.0395576878612607e-05,-3.192272080924854e-05,8.992066955683881e-06,4.0393789210019916e-07,-6.21042e-06,-5.557457360308295e-06,-4.631540404624271e-06,-1.323100370370371,0.9193660000000002,1.6599903703703704,1.673567037037037,1.048575925925926,1.8354533333333334,-1.8206785185185188,0.9756145185185185,1.77652,1.5764414814814813,0.932048037037037,-1.8094862962962963,1.8752874074074075,0.746294925925926,1.6092622222222224,-2.0040422222222225,0.9192170000000003,-1.861710740740741,-2.0280674074074074,1.1815096296296301,1.3004199999999997,-1.6966962962962964,1.4009781481481485,-1.0679696296296297
0.33,-1.9060114450867055e-05,-3.563935317919078e-05,-2.763691387283247e-05,6.062950404624199e-06,-8.317752196531797e-06,-5.166456763005761e-06,1.0110735028901622e-05,-4.58820341040461e-06,-1.6525344444444452,1.0805002222222226,1.6946066666666668,1.773827777777778,1.1404811111111115,1.8808044444444447,-1.9090044444444447,0.9815822222222224,1.8230711111111113,1.6946044444444448,0.9618883333333335,-1.862007777777778,1.9636133333333337,0.7689734444444445,1.6570044444444447,-2.0123977777777777,1.0612552222222225,-1.966747777777778,-1.949291111111111,1.3521911111111116,1.269388888888889,-1.69192,1.6516388888888898,-1.2505888888888894
0.34,-1.3719989595375705e-05,-3.052337398843926e-05,-3.42849104046243e-05,-1.271870173410398e-05,-3.1270452023121475e-06,-4.50670213872828e-06,-1.633766416184975e-05,-7.403802543352575e-06,-1.88633,1.148981851851852,1.69998,0.4580385185185123,1.1924,1.9430196296296296,-1.8960240740740741,0.9999331111111112,1.8934881481481483,0.6185829629629571,1.068268888888889,-2.002848888888889,2.04642,0.7909057777777778,1.70401,-1.9067644444444443,1.210604814814815,-0.5720299999999938,-0.5181674074074012,1.3747248148148148,1.531831481481482,-1.77756,1.895725925925926,-1.4617044444444447
0.35000000000000003,-1.3849630828516466e-05,-2.918537514450882e-05,-3.6984089980732064e-05,-1.5069904624277931e-05,-1.8709191907514702e-06,-4.990525221580086e-06,-1.5217010019267935e-05,-5.800983159922854e-06,-2.0252311111111116,1.171065925925926,1.703412962962963,-1.9543611111111103,1.1512214814814812,1.9727159259259262,-1.8251555555555552,1.0494711111111115,1.9931574074074079,-1.7812933333333332,1.1140703703703705,-2.034927037037037,2.0223977777777775,0.8652070000000005,1.6799877777777776,-1.8027751851851845,1.310118518518519,1.8588737037037029,1.983907407407407,1.36965,1.7563759259259266,-1.985094814814816,-1.4221677777778083,-1.6664055555555566
0.36,-1.5498100000000047e-05,-3.306626666666676e-05,-3.39614999999999e-05,7.66511333333368e-06,-4.084329999999976e-06,-4.531929999999965e-06,4.531929999999785e-06,-4.531929999999965e-06,2.0450733333333333,1.1615166666666668,1.7134066666666665,-1.8369433333333334,1.0540933333333335,1.9591366666666667,-1.7778566666666666,1.10109,0.6834833333333443,-0.6512566666666773,1.1091466666666667,-2.0491033333333335,0.6888500000000108,0.9090716666666666,1.6328366666666667,-1.7322000000000002,1.3213133333333333,1.7577166666666668,0.7412200000000106,1.3803933333333334,1.6972900000000004,1.8262033333333338,-1.8651433333333336,-1.8584266666666662
0.37,-1.4092864615384608e-05,-3.255632384615384e-05,-2.6316147692307728e-05,-9.03287230769231e-06,-2.3744219230769137e-06,-2.85344e-06,2.1071530769230685e-06,-7.55322e-06,2.0149362962962964,1.1039255555555558,1.7551777777777777,-1.8223225925925925,0.9782992592592594,1.916164814814815,-1.7757737037037038,1.101987037037037,-2.035822592592593,1.8308211111111117,1.10378,1.2625255555555421,-1.9119900000000003,0.9407020370370369,1.6161262962962963,-1.624777777777778,1.255960740740741,1.6303003703703707,-1.7080333333333342,1.375917037037037,1.5161633333333338,1.547794444444445,-1.751450740740741,-1.9992696296296295
0.38,-2.6066405202312138e-05,-2.7222920809248543e-05,-2.709937803468203e-05,-3.698409364161844e-05,-3.878965876685944e-06,-2.449500404624271e-06,1.877710809248542e-06,-5.974330404624271e-06,0.8183599999999951,1.0608062962962963,1.7865103703703704,-1.8336633333333332,0.9599484814814815,1.8828948148148148,-1.7929255555555557,1.0591644444444444,-2.040748148148148,1.8626048148148149,1.0861703703703705,1.9959874074074073,-1.9005014814814816,1.0021714814814815,1.6410396296296297,-1.5361562962962962,1.1018344444444443,1.543022222222222,-1.5416777777777775,1.3456251851851853,1.4682674074074074,1.5671885185185188,-1.7296696296296297,2.044923333333333
0.39,-1.2029630384615397e-05,-4.164601730769233e-05,-3.985260461538454e-05,-1.5702311923076896e-05,-5.426690730769219e-06,-5.987050384615398e-06,-9.531256576923111e-06,-2.51774e-06,-1.990918888888889,1.0321633333333333,1.7975555555555556,-1.8481344444444443,0.997251777777778,1.8678266666666667,-1.8566366666666667,1.0424544444444444,-2.0589500000000003,-1.1181022222222263,1.03843,-1.1543533333333365,-1.9613766666666668,1.01918,1.6887877777777778,-1.5012444444444444,0.9108613333333332,1.51467,-1.4623,1.2953466666666666,1.53571,1.904976666666667,-1.8338066666666668,2.04731
0.4,-1.4055689595375742e-05,-2.9771413294797698e-05,-4.03459132947977e-05,-7.170949999999594e-06,-7.50276427745674e-06,-3.736340404624259e-06,-5.263476936416444e-06,-1.0611368786127223e-05,-1.9327244444444445,1.071845925925926,1.777408148148148,-1.8475325925925925,1.1166085185185188,1.845,-1.8996062962962963,1.0648381481481481,2.030752962962963,-1.9507848148148148,1.0150033333333333,-2.0086725925925926,-1.9287022222222219,1.0803485185185189,1.6683496296296294,-1.5109433333333335,0.7761345555555554,1.5931500000000003,-1.5181003703703704,1.3116129629629631,1.6004614814814815,-1.9127340740740737,-0.9463740740740616,-1.9227318518518517
0.41000000000000003,-1.3775261271676204e-05,-2.6899510404624294e-05,-3.97803e-05,-2.4048069364162103e-05,-7.1670642774565595e-06,-3.649019595375705e-06,-1.51064e-06,-3.736340404624295e-06,-2.0162800000000005,1.1076533333333334,1.7624896296296295,-1.7699474074074073,1.2001566666666668,1.8867777777777779,-1.9115396296296296,1.0946751851851853,1.9621233333333332,1.0003781481481604,1.0150033333333333,-1.9400355555555553,-1.8421614814814815,1.1549485185185187,1.626571851851852,-1.5586840740740742,0.7641990000000001,1.7632388888888892,-1.5628633333333333,1.3772574074074075,1.6034466666666667,-1.7933785185185183,1.9719666666666664,-1.7198207407407402
0.42,-2.9644792307692063e-06,-1.5533821923076876e-05,-2.6296830384615395e-05,3.351691269230778e-05,-4.36408e-06,-1.5480834615384657e-06,4.53193e-06,-2.928325807692316e-06,1.96272,1.1207855555555557,1.7715944444444442,-1.7800955555555555,1.2035944444444444,1.9434733333333334,-1.880358888888889,1.070208888888889,1.971221111111111,1.8535044444444444,1.0702044444444445,-1.9703233333333332,-1.8633533333333334,1.161521111111111,1.6149344444444445,-1.6109022222222222,0.8191041111111111,1.9233266666666666,-1.5245177777777779,1.420228888888889,1.5836055555555555,-1.7778588888888889,1.8503677777777778,-1.4582733333333335
0.43,-2.075152119460499e-05,-3.5608910019267815e-05,-2.5171852023121354e-05,1.8483810019267745e-05,-5.03548e-06,-5.725305876685945e-06,-4.841751025048215e-06,-1.67849e-07,1.8952774074074075,1.12392,1.7429437037037037,-1.9028914814814815,1.1834514814814816,1.9130322222222222,-1.8263496296296295,1.05141,1.992855925925926,1.7930777777777778,1.1219825925925926,-2.039706296296296,-1.831718888888889,1.1973285185185185,1.5822614814814815,-1.6461133333333333,0.8634164814814814,2.0003148148148147,-1.4375370370370373,1.3997874074074075,1.630451111111111,-1.8985588888888887,1.8212777777777778,-1.3001262962962963
0.44,-2.491011076923077e-05,-3.296691076923077e-05,-3.817021076923077e-05,-1.3569976923076895e-05,-3.0471090000000277e-07,-6.060650230769214e-06,-2.9167024615384935e-06,-9.269153461538465e-06,1.2016522222222088,1.1231737037037037,1.6731251851851852,-1.9489937037037037,1.0994488888888887,1.9554081481481485,-1.7974062962962962,1.0730425925925926,1.9691337037037038,1.8958800000000002,1.1146677777777778,-2.0382144444444443,-1.946601851851852,1.2474548148148148,1.5588344444444442,-1.6890822222222222,0.9098170000000001,1.3020592592592455,-1.4147062962962964,1.3850137037037038,1.666404814814815,-1.3247392592592462,1.9406359259259265,-1.370098518518519
0.45,-1.59457e-05,-2.909386666666666e-05,-2.780703333333341e-05,-4.979526666666367e-06,-2.85344e-06,-6.713970000000018e-06,-4.196226666666595e-06,-9.56741e-06,-2.000763333333333,1.11989,1.6408933333333333,-1.9376499999999999,1.0003819999999999,2.0115066666666666,-1.82217,1.07961,1.9685366666666668,-0.7157066666666776,1.0755766666666666,-1.9671966666666665,-1.98599,1.3145933333333335,1.5039299999999998,-1.7254866666666666,0.9829270000000001,-2.004793333333333,-1.4475300000000002,1.39785,1.6932633333333333,1.840973333333333,-0.640510000000011,-1.5455600000000003
0.46,-5.588178381502869e-06,-2.5607162427745696e-05,-2.665538188824657e-05,-1.2342541271676632e-05,1.3469936030827748e-06,-3.835950809248566e-06,-2.6406352215799066e-06,-8.322926763005736e-06,-1.809342962962963,1.1036322222222221,1.6668514814814817,-1.900802962962963,0.9351817407407408,2.0313462962962965,-1.8572362962962963,1.0725962962962963,1.9751025925925927,-2.017622962962963,1.0588644444444444,-1.933172222222222,-1.9950962962962964,1.3818877777777778,1.4788592592592593,-1.7768155555555556,1.1078040740740742,-1.9616722222222223,-1.5003496296296295,1.439471851851852,1.6670051851851853,1.7072866666666666,-1.9515296296296296,-1.5886755555555556
0.47000000000000003,-8.771820404624223e-06,-2.8627532947976917e-05,-1.8245147976878884e-05,8.489777341040572e-05,-8.472989190751554e-06,-4.444607341040571e-06,8.399253468207874e-06,-7.093330404624223e-06,-1.7125077777777777,1.0593170370370368,1.7359351851851854,-1.9075133333333334,0.9538311481481484,2.006584074074074,-1.88125,1.0503651851851852,1.979428888888889,-2.019264814814815,1.0503651851851852,-1.9816688888888891,-1.9830085185185184,1.4211281481481484,1.4379833333333332,-1.8730518518518524,1.266407407407408,-1.9198944444444443,-1.5004966666666666,1.4830407407407409,1.6243318518518517,1.6975892592592594,-1.96182,-1.55093
0.48,-1.3782084393063594e-05,-3.377650924855485e-05,-4.0972691907514505e-05,-4.243092716762995e-05,-1.706534682080922e-05,-4.045848612716817e-06,-6.622769364161758e-06,-5.2421347976877925e-06,-1.7684566666666663,1.0433488888888889,1.7344388888888889,-1.9439177777777779,1.0062033333333331,1.9931544444444445,-1.845001111111111,1.056782222222222,1.9707755555555555,-2.027622222222222,1.03753,-2.02001,-2.007025555555556,1.4529066666666668,1.43008,-1.5549577777777923,1.3839688888888888,-1.8754322222222224,-1.461852222222222,1.4743911111111112,1.6180655555555554,1.443506666666681,-1.5598811111111255,-1.7747255555555543
0.49,-1.42855992292871e-05,-3.263098959537573e-05,-3.769236242774563e-05,-1.7550462427745628e-05,-4.86763e-06,-3.724050809248542e-06,-5.82685932562612e-06,-2.4549983815029162e-06,-1.8615559259259258,1.1042259259259257,1.7380270370370372,-1.9713725925925925,1.0575277777777776,1.9740551851851853,-1.7984470370370371,1.0746844444444443,1.992262962962963,-2.0479066666666665,1.0184337037037037,-2.027171481481482,-1.9855440740740744,1.4350014814814815,1.4372385185185186,1.9160170370370373,1.368457777777778,-1.7787566666666668,-1.4630462962962962,1.4302251851851853,1.653872962962963,-1.9976340740740741,1.8597722222222226,0.32003296296295325
0.5,-2.9684720809248565e-05,-3.30663e-05,-2.9666288246628152e-05,2.3540936030827753e-06,3.2137188246628024e-06,5.154171618497132e-06,-7.962326358381696e-07,-3.903543583815009e-06,-1.9269111111111112,1.1462996296296297,1.697441851851852,-2.0185185185185186,1.1034814814814815,1.9386962962962964,-1.79263,1.08766,2.0361203703703707,2.030450740740741,1.0200755555555556,-2.0058322222222222,-1.956298148148148,1.4473833333333335,1.4591655555555556,1.8239644444444443,1.2884866666666666,-1.6880407407407407,-1.5431655555555557,1.3747255555555555,1.7072922222222222,-1.70594111111111,1.460814074074074,1.7768122222222222
0.51,-1.598386242774569e-05,-2.909421233140656e-05,-3.157667167630064e-05,5.2072071290945244e-06,2.2564243930635774e-06,7.516990250481727e-06,-1.2590640462427802e-05,-4.345969017341056e-06,0.2484166666666745,1.0993033333333333,1.7586122222222222,-2.0155333333333334,1.097511111111111,1.8902055555555555,-1.781441111111111,1.089898888888889,2.056261111111111,1.9461544444444443,1.0424588888888888,-2.0065822222222223,-1.9197444444444445,1.4779666666666667,1.4860266666666666,1.8642422222222224,1.110942222222222,-1.6574555555555557,-1.716987777777778,1.2993755555555555,1.7460811111111112,2.0374644444444443,1.1825511111111109,1.6373177777777776
0.52,-8.548020404624281e-06,-3.023128439306358e-05,-4.392025067437379e-05,-1.9513563583815014e-05,-1.0425089210019262e-05,-1.9077871290943916e-06,1.4369038304431849e-06,-9.300273005780352e-06,1.977342962962963,1.0391707407407407,1.8536566666666665,-2.0146377777777777,1.099004074074074,1.8408207407407406,-1.7550274074074075,1.0918392592592594,2.0500022222222225,1.872454074074074,1.0672214814814815,-1.882743703703719,-1.8529107407407406,1.5151177777777778,1.5360037037037035,1.859618148148163,0.8945990370370375,-1.7698011111111105,-1.8444033333333334,1.1580829259259264,1.694457777777778,-2.0222514814814816,1.1130251851851856,1.6453674074074065
0.53,-9.916018942307632e-06,-2.97093e-05,-3.290976057692322e-05,-5.0893806730769456e-05,-1.0325952884615368e-05,-4.057429009615643e-06,1.379913269230792e-06,-6.079690673076946e-06,1.9659992592592592,1.03529,1.8649907407407407,-2.036722962962963,1.0691618518518518,1.8473829629629632,-1.699234074074074,1.09572,2.034180740740741,1.85306,1.0427533333333332,2.054325925925926,-1.84903,1.5246703703703703,1.5774829629629632,-1.998075925925925,0.8540171851851859,0.060277407407430594,-1.8038196296296294,0.8904218148148135,1.6744614814814818,-1.8276922222222212,0.8889283703703686,0.02357481481479251
0.54,-1.561e-05,-2.80308e-05,-4.11231e-05,-1.12459e-05,-5.53902e-06,-1.15816e-05,3.52483e-06,-1.39315e-05,2.02225,1.04738,1.82889,-2.06253,1.04738,1.86111,-1.65566,1.08363,2.0303,1.85708,0.986953,2.0585,-1.8732,1.51467,1.63552,-1.70401,1.11586,1.5187,-1.8168,0.660655,1.78457,-1.37771,0.217533,-1.14809
0.55,-1.9886947115384613e-05,-2.90379e-05,-3.832610096153848e-05,-3.847621057692294e-06,5.724625961538436e-06,-1.1355653269230707e-05,-1.0319547115384612e-05,-3.649103557692306e-06,-1.9855466666666657,1.0536437037037036,1.7750222222222218,0.07191740740736519,1.0196325925925924,1.8472388888888887,-1.6774470370370371,1.0497629629629628,2.050146666666667,1.86514,0.9508471851851851,-2.040598888888889,-1.8854292592592592,1.4711059259259256,1.7386188888888898,-1.3457825925925913,1.1413777777777772,1.43156851851852,-0.052220740740699156,0.6960148148148153,1.8487266666666669,-1.0267874074074077,0.0,-0.8625214074074083
0.56,-1.15816e-05,-2.76951e-05,-4.6170789595375784e-05,-2.4854933911367642e-05,-7.366930789980635e-06,-8.146654739883093e-07,4.370224797687894e-06,2.6794452023121062e-06,-1.860213333333333,1.012462962962963,1.7604,-2.0195625925925924,1.0032192592592593,1.8293374074074074,-1.7111648148148149,1.031568148148148,-1.898266666666684,1.841865185185185,0.9311528148148148,-2.0420914814814815,-1.8890114814814816,1.3609918518518516,1.912586296296297,-1.4206788888888895,1.0727437037037035,1.7081825925925933,1.8867703703703698,0.825818592592593,1.853208888888889,-1.3962037037037052,0.0,-1.1662935555555567
0.5700000000000001,-1.1133353179190685e-05,-3.17235e-05,-3.528646242774575e-05,2.213316570327509e-05,-2.8906321965317806e-06,-8.228495356455119e-06,-1.516369364161863e-05,-4.644476820809315e-06,-1.791734444444444,0.9533838888888887,1.825752222222223,-1.978382222222222,1.010677777777778,1.82889,-1.7125077777777775,1.0464844444444448,-2.0294088888888884,1.8114266666666665,0.9336893333333336,-0.2434944444443845,-0.294072222222165,1.1516688888888869,-2.015083333333332,-1.5540588888888887,1.2071688888888903,1.6798366666666644,0.2058911111110544,0.9001195555555561,1.7572688888888874,-0.2511033333332773,0.4507311111111149,-1.6189622222222255
0.58,-1.15816e-05,-3.234574161849713e-05,-4.2117910404624284e-05,-2.2514390558766756e-05,2.2189087861271472e-06,-7.907344393063574e-06,-1.2483545279385804e-07,-5.700725202312142e-06,-1.7768177777777778,0.9802394444444442,1.8943855555555553,-1.9813637037037035,1.0076962962962965,1.8363437037037036,-1.70803,1.0666251851851851,-2.014488518518519,1.823367407407407,0.968751185185185,2.0041981481481486,1.7656203703703715,0.9711383333333343,-1.96585,-1.3750181481481496,1.507065185185183,1.0658811111111155,-1.7113162962962984,0.9411489999999998,1.6222429629629638,1.3997855555555596,1.0624499999999961,1.6015062962962676
0.59,-1.973801040462426e-05,-2.994538959537574e-05,-3.75927520231213e-05,-2.9111637572254438e-05,-9.021490269749381e-06,6.022201078998279e-06,-2.9271705394991396e-06,-5.738240809248521e-06,-1.742347777777778,1.0255981481481482,1.893190740740741,-1.939737777777778,1.0200755555555554,1.8093411111111113,-1.6787892592592597,1.101537037037037,-2.01016,1.8890092592592587,1.0079914814814814,1.973754814814815,1.8129188888888879,0.8608804814814819,-2.032843333333333,-1.1774818518518515,1.9130337037037026,0.4690829629629636,-1.7169888888888871,0.9718845185185183,1.7110166666666653,1.0906492592592596,0.9423409259259293,1.7383207407407386
0.6,-2.122373005780347e-05,-3.10521e-05,-3.75419543352601e-05,-9.788621618497035e-06,-1.4042106358381465e-05,-6.1386239884393875e-06,-3.9721065895953665e-06,-3.7673878034682115e-06,-1.683867777777778,0.9730784444444447,1.8884144444444444,-1.9528666666666665,1.0057555555555555,1.7639811111111112,-1.5988188888888892,1.1194422222222222,-1.9922577777777777,1.9904699999999997,0.9936673333333335,1.9510822222222224,1.9859944444444442,0.8262656666666667,-2.013741111111111,-1.4913988888888876,1.8557388888888895,0.6194755555555548,1.4734911111110975,1.0411135555555553,2.0141899999999993,1.1897188888888885,0.22737944444444624,-1.3602511111110975
0.61,-2.0123515606936423e-05,-3.051754335260116e-05,-3.44091e-05,-1.4989052023121408e-05,-7.0001882080924925e-06,8.761153063583688e-07,-4.7182125433525955e-06,-7.41641739884393e-06,-1.683717037037037,0.8911671481481485,1.9363055555555553,-0.5153351851852002,0.9759129259259259,1.7147503703703706,-1.5133303703703704,1.0922907407407407,-1.938847777777778,2.0313485185185187,0.9011639259259262,1.9240774074074074,-1.8329133333333343,0.838350925925926,-1.7608474074074083,-0.6076911111111247,1.2949003703703716,1.0625987407407398,1.4017266666666672,1.173005185185185,-1.9503307407407409,1.5576422222222213,0.059231942962962414,-1.5598818518518518
0.62,-2.1746662427745688e-05,-3.72502140655106e-05,-3.280433757225431e-05,-5.342718420038432e-06,-7.896995992292925e-06,-2.661651040462096e-07,5.080434046242816e-06,-1.35958e-05,-1.7760681481481482,0.8001557407407407,2.0334374074074075,2.0258307407407408,0.9914292592592593,1.6507414814814816,-1.5042233333333332,1.0624451851851853,-1.8826003703703704,2.0056907407407407,0.8237289999999999,1.92154,-1.5724144444444443,0.863118,-1.487365185185185,1.5055703703703702,0.9072817777777776,1.5273562962962965,1.0757244444444443,1.2840096296296297,-1.9582392592592592,2.0010629629629633,0.35211062962962975,-1.6505911111111113
0.63,-1.4323133333333334e-05,-3.18354e-05,-3.7038733333333335e-05,-1.3316033333333333e-05,-5.203326666666666e-06,-6.65802e-06,-1.2308966666666667e-06,-4.64383e-06,-1.9309366666666667,0.8123906666666667,2.046413333333333,2.0303066666666667,1.0299233333333333,1.6153833333333334,-1.5777866666666667,1.05544,-1.845,1.9846466666666667,0.809705,1.8906533333333333,-1.5374999999999999,0.98561,-1.26894,0.4740066666666667,0.9909806666666666,1.6462633333333332,1.0742366666666667,1.2810266666666665,-0.7170533333333335,-1.93228,0.5116046666666667,-1.6449233333333333
0.64,-9.828217153846145e-06,-2.5804850769230756e-05,-3.37377e-05,-1.378816153846153e-05,-5.03548e-06,-1.9457588461538446e-06,-8.622285384615379e-06,-4.333092307692311e-06,1.3025070370370568,0.8714731111111114,2.023740740740741,2.0547703703703704,1.053201111111111,1.586135185185185,-1.6529770370370374,1.0587155555555556,-1.8336562962962963,1.9754007407407408,0.8195520370370372,1.8787207407407407,-1.6917718518518527,1.1422662962962966,-1.0803488888888884,-1.4637918518518491,1.1992651851851859,1.283117407407406,1.490802592592594,1.1553962962962956,1.893933333333333,1.2534214814815006,0.5178709629629629,-1.484679629629629
0.65,-1.429209518304431e-05,-3.268079479768787e-05,-3.23949e-05,-2.145337919075148e-05,-1.625552716763018e-05,-3.4750262813102204e-06,-2.058275838150296e-05,-8.149903680154154e-06,2.010610740740741,0.8790825185185186,2.0282174074074075,-1.9804703703703703,1.0843833333333333,1.5606248148148147,-1.7377266666666666,1.073938148148148,-1.8176985185185184,1.97794,0.8511824814814815,1.8636503703703704,-1.9125866666666664,1.202101851851852,-1.0094851851851852,-1.1864325925925925,1.3084818518518517,1.0860200000000002,0.8473077777777822,1.0385766666666667,1.9561533333333332,1.9085614814814815,0.4999672592592593,-1.39785
0.66,-1.385661307692307e-05,-3.198431307692307e-05,-3.455818384615384e-05,-4.269826884615356e-06,3.6739582692307674e-06,5.771433307692018e-07,1.7714530769230687e-06,-4.252395192307699e-06,2.005236666666667,0.8307419999999998,-1.140930000000023,-1.94526,1.1113844444444445,1.5392877777777776,-1.7604,1.073341111111111,-1.7724877777777774,1.959141111111111,0.8446175555555555,1.8065066666666663,-2.043727777777778,1.1619666666666664,-1.040217777777778,-1.4166455555555573,1.3768144444444446,0.986953222222222,-1.5549533333333316,1.0617033333333337,-1.0948244444444666,2.025825555555556,0.4695304444444443,-1.4323133333333338
0.67,-1.3384289595375764e-05,-3.157410289017347e-05,-3.2680147976878816e-05,-5.1043601156067924e-06,-7.394099479768067e-06,-2.186893757225824e-06,1.2427641618496944e-05,-5.87472e-06,2.0234414814814814,0.7803122592592592,-2.0079237037037037,-1.9164651851851853,1.1391344444444444,1.5113888888888887,-1.7289188888888887,1.0411137037037037,-1.705647037037037,1.9254133333333332,0.8167167037037036,1.7389192592592593,2.009864074074074,1.0836329629629626,-1.0681196296296296,-0.9308525925925812,1.2722214814814812,0.954726,-1.3981459259259261,1.1524159259259261,-1.9640562962962962,-1.9522725925925926,0.41865285185185175,-1.4896044444444445
0.68,-1.711385838150277e-05,-3.37377e-05,-3.0355492485549056e-05,-1.3402692485549056e-05,1.4621328786129776e-06,1.859926566474234e-06,-1.1084841618497232e-05,-5.626344508670582e-06,2.0443303703703704,0.7624085555555555,-1.9810718518518518,-1.8866281481481477,1.1510751851851853,1.4785666666666666,-1.6781929629629626,1.0172396296296295,-1.6638692592592592,1.9194503703703705,0.8197011481481482,1.7031118518518518,1.9830048148148147,0.8687885185185169,-0.7906062962962933,1.7189251851851834,1.170769629629629,1.0054548888888895,-1.5473459259259275,1.212097407407408,0.9990400000000372,-1.9045318518518517,0.3649417407407404,-1.5254118518518522
0.6900000000000001,-2.4636356538461606e-05,-2.653891615384612e-05,-3.485713038461518e-05,-9.71718273076896e-06,6.8430865000006746e-06,-7.331139307691497e-06,-1.2495085769230939e-05,-9.269153461538394e-06,-2.0432877777777776,0.7586784444444444,-1.9443688888888888,-1.86111,1.162411111111111,1.4573766666666665,-1.6176211111111107,1.0053086666666666,-1.7026622222222225,1.959586666666667,0.8070187777777774,1.70401,-1.9474988888888873,1.0921392222222253,-1.087663222222229,1.6288088888888894,1.051857999999999,1.1919566666666679,-1.0241055555555278,1.1928455555555542,1.9295955555555557,-1.9269111111111112,0.434617333333335,-1.7183288888888906
0.7000000000000001,-1.62315947976878e-05,-2.9572820809248807e-05,-3.57519e-05,-1.09102e-05,1.977319730250861e-06,-1.67849e-07,4.116022736031366e-06,1.0753307822734766e-06,-1.9728662962962955,0.7266007407407403,-1.92557,-1.863945925925926,1.150478148148148,1.45425,-1.5633125925925921,0.9876995185185183,-1.751596666666667,2.005386666666667,0.701386222222221,1.698338148148148,-1.5322781481481436,1.5342137037037058,0.3761329629630028,1.8062062962962986,0.8668481851851836,1.4108303703703722,1.6388033333333278,0.7728520370370322,-0.689895185185234,0.8550588888889399,0.8601338148148193,0.8401411111111603
0.71,-1.4335610769230756e-05,-3.3377497692307596e-05,-3.30417976923076e-05,-7.292402846153767e-06,-9.591965615384708e-06,1.4486646153845626e-06,1.9702907692308752e-06,-9.355660769230875e-06,-1.8391762962962968,0.6402141481481486,-1.9291440740740742,-1.887518888888889,1.1149681481481484,1.4115755555555558,-1.4885614814814816,0.9031030740740745,-1.704007407407408,2.0149362962962964,0.5969460740740745,1.6893825925925925,-1.2944551851851853,1.262825925925929,0.6888531481481487,-1.8196311111111132,0.7470410370370372,1.469758518518519,1.01649425925926,0.19694318518518636,-1.231642592592593,1.5589840740740757,1.3398125925925923,1.5364570370370394
0.72,-7.777013333333332e-06,-3.30663e-05,-3.211516666666667e-05,-1.1413733333333332e-05,-3.524832666666666e-06,-6.15447e-07,-1.588973333333333e-05,-1.0462599999999999e-05,-1.7362333333333333,0.5116046666666667,-1.8664833333333333,-1.9107966666666667,1.0460399999999999,1.3199666666666667,-1.4730466666666666,0.7533070000000001,-1.5589866666666667,2.026273333333333,0.45789266666666667,1.69595,-1.3938166666666667,0.2524453333333333,0.9117563333333334,-1.3132533333333334,0.7667353333333333,1.3871066666666667,1.1346630000000002,0.14770733333333333,-1.38711,1.32265,1.0822906666666667,0.9318979999999999
0.73,-1.57778e-05,-3.0479016763005745e-05,-3.670984161849713e-05,-7.708780404624281e-06,-1.398906705202299e-05,-4.097913969171517e-06,4.736648786127155e-06,-4.421324373795799e-06,-1.7944237037037036,0.454163,-1.7392196296296298,-1.934814074074074,0.99501,1.242831111111111,-1.5415322222222223,0.6709496296296297,-1.511834074074074,2.040598888888889,0.35076762962962965,1.6704381481481483,-1.8333618518518517,0.0,1.7963566666666664,-1.153162962962963,0.9390601481481481,1.321907037037037,1.5926996296296296,0.7776265925925925,-1.381732592592595,1.404118888888889,0.4757966296296297,0.9398065555555553
0.74,-2.4051922543352546e-05,-2.9647205202312156e-05,-3.4496420809248615e-05,-9.06386e-06,-4.979204739884324e-06,-2.5051269942196147e-06,2.2994361271674767e-07,-1.2190905202312153e-05,-1.9709233333333327,0.47639329629629623,-1.5977725925925934,-1.9467548148148148,1.0127655555555553,1.1831485185185189,-1.6641725925925919,0.6378271481481484,-1.5237748148148147,1.989720370370371,0.3010840740740741,1.6319440740740743,-1.8597655555555561,0.142037518518517,-0.34524518518516034,-1.5115399999999979,1.0009766666666668,1.3836751851851845,1.6831211111111108,1.2050799999999977,1.7280288888888913,1.4293311111111109,0.40567292592592546,1.515115925925924
0.75,-2.239768208092483e-05,-3.299256242774569e-05,-3.276746878612715e-05,-8.075194393063578e-06,-3.0009095953756728e-06,-9.411175722545842e-08,-3.93621358381506e-06,-1.0273732774566406e-05,-2.0468677777777775,0.38672433333333306,-1.302956666666666,-1.9551122222222224,1.0728911111111112,1.1145188888888888,-1.77831,0.5371176666666663,-1.5701722222222225,1.8606655555555554,0.33972711111111126,1.6306022222222223,-1.7339955555555562,0.9448791111111131,-1.6565633333333343,-1.7988922222222221,0.954726,1.577333333333334,1.7545855555555558,1.4148611111111107,1.4515566666666673,1.327126666666653,0.7506214444444455,-1.871854444444443
0.76,-3.0454437572254438e-05,-2.759548959537574e-05,-3.141922080924852e-05,-6.894756416184911e-06,-2.4071306743736414e-06,-8.12499959537574e-06,-1.369541040462426e-05,-4.967240404624261e-06,-1.9167670370370375,0.30078596296296306,-1.0499142962962968,-1.9634618518518518,1.130182962962963,1.0596151851851852,-1.795018148148148,0.4249200370370371,-1.6489514814814814,1.761595925925926,0.39701955555555546,1.672371111111111,0.43953925925924975,1.554807407407407,0.2878040740740655,-1.6329900000000004,0.9499520740740741,1.7468237037037035,1.8715544444444443,1.1474922222222228,1.7416040740740735,-1.7845770370370377,0.9893405555555556,-1.3084766666666676
0.77,1.4879044682081051e-05,-3.0411425818882448e-05,-3.472022080924857e-05,-1.026337919075143e-05,-3.5002511753372006e-06,-2.18204e-06,-3.872819595375716e-06,-3.7990823892100533e-06,-1.7268322222222232,0.5013096666666694,-1.2778892592592637,-1.9565966666666665,1.1759914814814816,1.030820740740741,-1.820380740740741,0.3694171851851859,-1.700874814814815,1.729074814814815,0.406867,1.6947566666666667,1.9213892592592596,1.5195951851851828,1.4475277777777766,-1.3550255555555548,0.9138461851851851,1.8885685185185197,-1.9654003703703682,0.837604814814814,1.9166174074074065,-1.3742766666666641,0.7285406296296278,-0.7947843333333309
0.78,-2.777112928709006e-06,-2.929921560693642e-05,-2.8969359152215973e-05,-9.828725606936423e-06,-2.145819364161881e-06,-3.7499258574181492e-06,-1.187913757225431e-05,-9.006614142581852e-06,0.27840666666667335,0.9712857777777784,0.2126088888888953,-1.93273,1.16331,1.1315300000000001,-1.8427622222222222,0.553678666666667,-1.7053488888888888,1.74921,0.43148477777777783,1.691028888888889,2.0146411111111115,1.076474444444444,1.2998222222222222,-1.2931088888888889,0.9511454444444446,-0.17187777777778512,-1.5759911111111107,0.6906433333333332,1.6838599999999997,-0.9654705555555552,0.6427504444444448,-0.686615444444445
0.79,-3.3495166281310156e-05,-4.0724011560692973e-05,-3.9270605202312176e-05,-1.35958e-05,-5.191035587668672e-06,-2.85344e-06,-2.051063603082616e-06,-5.017040789980851e-06,1.7041511111111098,1.1304797407407388,1.541079629629629,-1.9522762962962972,1.1349559259259254,1.2710288888888894,-1.4361951851851806,0.7816555555555569,-1.688493333333287,1.7596540740740738,0.5311499629629655,1.785024074074077,-1.9913644444444436,0.90086577777778,1.3386137037037042,-1.3499574074074074,1.041110370370371,-1.8736488888888876,-1.3578585185185188,0.6164912222222222,1.4954251851851854,-1.0812462962963008,1.356968148148152,-1.7171392592592636
0.8,-1.721425865384611e-05,-2.3929785576923615e-05,-3.291781730769222e-05,-7.727523173076893e-06,-7.727523173076893e-06,5.03548e-07,-4.693324230769261e-06,-4.562594903846207e-06,1.7014711111111123,0.8887803333333322,1.544660370370371,0.08310222222224706,1.1057203703703704,1.348315555555556,-1.0088859999999993,0.9612924444444453,1.7696518518518496,1.6943088888888882,0.8295484814814827,-0.034613703703727516,-1.9090074074074073,1.1383922222222231,1.3717396296296296,-1.307285555555555,1.0417083703703698,-1.7429422222222217,-1.3927748148148151,0.6349921851851853,1.589716296296297,-1.5592818518518532,1.6640185185185186,-1.9519755555555542
0.81,-1.40993e-05,-3.81018e-05,-3.74304e-05,-9.90311e-06,-8.39246e-07,-2.18204e-06,1.59457e-05,-1.02388e-05,-2.06253,0.680797,1.58315,1.98196,1.09975,1.42202,-1.03529,1.18032,1.26894,1.52273,1.10781,-1.84097,-1.88528,1.43813,1.35756,-1.27297,0.922499,-1.89737,-1.4905,0.69691,1.7322,-1.89334,1.63955,-1.83291
0.8200000000000001,-1.3565122115384814e-05,-3.082297019230809e-05,-1.917838942307695e-05,-6.358905288461199e-06,5.451869711538406e-06,-1.35958e-05,-6.2539964423077205e-06,-9.368892500000197e-06,-1.781588518518517,0.6026159999999998,1.3744251851851836,1.9931548148148153,0.9991899629629617,1.606132222222224,-1.2747570370370382,1.2411925925925924,1.0998992592592591,1.3745751851851846,1.397995925925928,-1.8347062962962963,-1.9944985185185193,1.503634444444444,1.399044444444445,-1.5567470370370382,0.8978814074074076,-1.9427251851851859,-1.7256392592592618,0.84536351851852,1.7205625925925923,2.0213540740740736,1.4806529629629617,1.985989259259258
0.8300000000000001,1.5475126396919099e-06,-3.248192331406553e-05,-3.577647919075158e-05,-5.053909210019366e-06,-9.219420404624212e-06,-4.034524797687894e-06,4.1655060115605313e-07,-5.7130147976878945e-06,-1.6028507407407404,0.6076891851851852,1.2311962962962961,-1.903629629629647,0.8416329999999995,1.8084433333333338,-1.6167274074074087,1.0928822222222216,1.1345081481481483,1.458122592592593,1.7122122222222231,-1.8370892592592594,1.8563340740740908,1.326979629629629,1.5034770370370374,-1.7629396296296302,1.0073901481481486,1.8084496296296468,1.7894918518518674,1.0503670740740745,1.6692418518518517,1.9201955555555552,1.0805003703703688,1.8752885185185182
0.84,-1.5835093641618534e-05,-3.258183121387284e-05,-3.660924990366087e-05,-5.53902e-06,-1.0725211464354572e-05,-1.2131044219653428e-06,-2.2564243930635774e-06,-1.0108181117533716e-05,-1.3338400000000004,0.6906439999999999,1.1740522222222223,-1.8087400000000002,0.3262990444444453,-1.868272222222223,-0.3531544444444512,0.7877722222222225,1.0728951111111114,0.15173555555556217,1.956001111111111,-1.7872555555555556,1.844548888888889,1.096616666666667,1.6082166666666666,-1.7066922222222223,1.1221255555555554,1.7760655555555556,1.3875533333333339,1.1095966666666668,1.6749155555555555,1.750107777777778,0.6364844444444447,0.2443877777777852
0.85,-3.3054010404624284e-05,-3.102752080924857e-05,-3.3749989595375715e-05,-4.431672408477805e-06,-1.0195786782273626e-05,-1.78489235260119e-06,-5.027394007707041e-06,-1.8709191907514316e-06,-1.3323474074074069,0.6719934444444449,1.3083281481481472,-1.4417140740740761,0.0047743777777782895,-1.5877833333333342,1.2291029629629668,0.5915750000000009,0.9580084444444448,-1.3880033333333375,1.9358566666666672,-1.6596962962962971,1.64909888888889,0.8616268518518531,1.6955037037037033,-1.7872588888888883,1.193744074074074,1.7589081481481479,1.0540922222222233,1.11183,1.7524914814814812,1.656854074074074,0.6514046296296286,-2.0003196296296295
0.86,-1.5447647976878696e-05,-2.900657919075148e-05,-3.0425042389209924e-05,-8.79639959537574e-06,-3.170702639691689e-06,-6.99986479768787e-06,-7.55322e-06,-2.3553879768786984e-06,-1.7963562962962973,0.588144,1.5445114814814818,-0.9739723333333328,0.0,-1.6146340740740737,0.854017,0.47773596296296295,0.9935191851851851,-1.0324618148148146,1.4002374074074064,-1.2071718518518508,1.6262737037037038,0.7043699999999998,1.7760640740740743,-1.7447359259259256,1.266707037037037,1.7304129629629628,0.9498045925925929,1.1160151851851852,1.9131833333333335,0.252742592592583,1.0251477037037042,1.984648888888889
0.87,-1.398095849710964e-06,-2.38346e-05,-3.3531983236994205e-05,-1.3223231213872845e-05,-2.183010231213901e-06,-1.6600556069364226e-06,-7.655074219653428e-07,-1.4935667052023039e-05,1.421575555555541,0.6740826666666664,1.579127777777778,-0.7913527777777779,0.1253271111111106,-1.4654400000000003,1.0939307777777767,0.6543881111111104,1.0711055555555553,-0.999039,0.9681544444444452,-0.7989626666666674,1.7169877777777776,0.6351415555555556,1.8190388888888889,-1.6588011111111114,1.2452166666666669,1.7339922222222222,1.2040422222222216,1.1458522222222223,1.95377,-1.7715922222222231,1.0621533333333335,1.9918133333333332
0.88,-2.572461040462428e-05,-2.748358959537572e-05,-3.121416936416186e-05,-1.265079479768786e-05,-8.702941387283227e-07,-5.4769270520231235e-06,-1.6474426011560704e-06,1.8405200924855606e-06,0.4185074074073811,0.8009019259259264,1.4660288888888886,-0.9250340740740756,0.7920992592592614,-1.5664444444444452,1.5034833333333342,0.9407019259259266,1.239395555555556,-1.0105292592592594,0.6067934444444436,-0.37061122222222076,1.895133703703704,0.6417060740740745,1.806803333333333,-1.660591851851852,1.171812222222222,1.7087837037037035,1.5789737037037053,1.126604074074074,1.9187014814814811,-1.5982251851851852,0.913547148148148,-2.0362703703703704
0.89,-1.49386e-05,-2.997126242774569e-05,-3.59197e-05,-1.2351316763005746e-05,-4.327211213872844e-06,-1.5843775722543104e-06,-4.19623e-06,1.0274658805395488e-06,-1.8760325925925925,0.8819168888888889,1.4552862962962962,-1.1830040740740742,1.0705011111111111,-1.6956544444444446,1.7278803703703705,1.0985531851851853,1.37084,-1.0540896296296296,0.6249962592592593,-0.19932999999999998,1.8946818518518518,0.7946355185185187,1.8412714814814815,-1.6689440740740742,1.1642,1.641488888888889,1.904377037037037,1.069458888888889,1.8624518518518518,-1.647902962962963,0.9806868888888889,1.364573703703706
0.9,-1.18054e-05,-3.23949e-05,-3.401743333333333e-05,-1.28125e-05,-9.45551e-06,-1.51064e-06,-9.119810000000001e-06,-7.105616666666666e-06,-1.7872566666666667,0.9829253333333333,1.3884466666666666,-1.61538,1.2098533333333332,-1.8772266666666666,1.9336233333333332,1.1977733333333334,1.4327633333333334,-1.2259733333333334,1.064834,-0.5169756666666667,1.8732,1.00038,1.9524199999999998,-1.5643566666666666,1.1615133333333332,1.66104,2.019563333333333,0.9950133333333334,1.8611166666666665,-1.7080366666666666,1.0997466666666667,1.8678266666666667
0.91,-1.6747486153846195e-05,-3.460793769230772e-05,-3.37377e-05,-1.272556230769228e-05,-8.361472307692282e-06,-3.1142471538462334e-06,1.063907284615146e-06,-7.2859511538461405e-06,1.342944074074093,0.9641261481481478,1.5991185185185204,-1.9874874074074083,1.303551851851852,1.261035555555575,-1.1425700000000187,1.329367407407408,1.4578240740740742,-1.636270370370372,1.661630000000002,-1.226568333333336,1.9125881481481484,1.1656900000000006,1.99002,-1.4354477777777774,1.1904614814814818,1.6929666666666667,1.9700255555555553,0.9675579259259259,1.8903566666666667,-1.7930751851851856,1.0994496296296297,1.866931111111111
0.92,-1.093509518304431e-05,-3.551581040462426e-05,-4.102348959537574e-05,-1.1289194412331428e-05,7.894410944123401e-07,-2.1322347976878695e-06,-2.18204e-06,-7.16771479768787e-06,1.8232181481481482,0.9686008148148151,1.5997125925925921,1.9840525925925925,1.3310048148148148,1.888268148148148,-1.7830785185185187,1.4825933333333337,1.519741851851852,-0.84730444444443,-1.9892733333333323,-1.8515618518518528,1.95377,1.2523792592592593,1.9073622222222217,-1.4275396296296299,1.2443222222222223,1.7369762962962965,1.769505555555555,1.0157504074074075,1.9251192592592592,-1.9734574074074078,1.0088864444444443,1.910498888888889
0.93,-1.3447317307692328e-05,-2.428194038461538e-05,-3.933287076923078e-05,-5.016758269230767e-06,-6.8630982692307665e-06,-4.513208269230767e-06,-3.82437657692311e-06,-1.5119300384615758e-06,1.8852866666666672,1.0455911111111114,1.533468888888889,1.988678888888889,1.2971377777777775,1.85708,-2.012398888888891,1.5558500000000004,1.5415266666666665,1.9868900000000007,-1.7183277777777763,1.015153333333369,1.9412322222222222,1.2170211111111107,1.7917377777777772,-1.4721533333333336,1.25283,1.74832,1.5348166666666654,1.0899033333333337,1.952418888888889,1.1185511111111488,0.9717351111111111,1.9730088888888893
0.9400000000000001,-2.036507167630076e-05,-3.9692979190751525e-05,-2.5076495953757638e-05,-1.0507526242774156e-06,-7.199085606936354e-06,-3.138684277456853e-06,-3.354074104045298e-06,1.0535678554913726e-05,2.022692592592593,1.0624451851851853,1.5680848148148148,0.9782981481481181,1.2261177777777774,1.87723,1.8139644444444438,1.5953866666666667,1.4629022222222219,-1.807106296296295,-1.6253803703703702,1.8714062962962965,1.92557,1.113624074074073,1.7706962962962964,-1.518254444444445,1.2395485185185184,1.7556311111111114,1.4473814814814816,1.1433111111111112,1.9728651851851853,1.0026174074073777,0.9953081481481484,1.9804725925925923
0.9500000000000001,-1.4515579190751384e-05,-4.793598208092475e-05,-1.6392006358381227e-05,-2.2693608092486163e-06,-2.4624368208093866e-06,-4.481474277456494e-06,-5.028684682080802e-06,-2.131587976878459e-06,2.0495518518518514,1.053497037037037,1.5770403703703704,-2.0355240740740737,1.166436296296296,1.8682744444444443,1.6588014814814798,1.622245925925926,1.3703985185185175,-1.4311211111111066,-1.61941,1.9668951851851866,1.9345181481481484,0.9465196296296283,1.839325925925927,-1.6018025925925934,1.2067262962962961,1.812327407407408,1.498107407407408,1.176140740740741,1.9609244444444442,-2.0231455555555558,1.037083703703704,1.908857777777777
0.96,-2.3517616153846154e-05,-3.373830115384617e-05,-4.80603696153846e-05,-8.29949692307693e-06,-1.1022530384615397e-05,-6.358903807692286e-06,-6.079368999999986e-06,-1.743629269230765e-05,1.9501877777777779,1.0755777777777775,1.5661422222222219,-1.9712200000000006,1.072892222222223,1.821727777777778,1.532575555555556,1.6274644444444448,1.2980355555555554,-1.12795,-1.690129999999999,-2.002106666666667,1.9582455555555554,0.9475649999999997,1.9040822222222218,-1.6869999999999996,1.1485377777777779,1.8848322222222222,1.5755433333333329,1.1736033333333336,1.967191111111111,2.0182166666666674,1.0518577777777778,1.8960244444444443
0.97,-2.145337919075148e-05,-1.561e-05,-3.3750636416184916e-05,-7.03123412331404e-06,2.1322347976878695e-06,-3.2887489210019095e-06,-3.960140404624261e-06,-7.200052870905446e-06,1.93765,1.1151166666666665,1.6025466666666666,-1.8232133333333338,0.939061703703704,1.7853162962962963,1.4370862962962967,1.5539092592592596,1.329515185185185,-1.2526814814814808,-1.827993333333333,-1.9258655555555557,1.9597374074074074,1.0044083703703703,1.9218355555555557,-1.6667062962962966,1.1530085185185184,1.866188888888889,1.6335825925925926,1.1556992592592592,2.0001625925925928,1.9448114814814816,1.0223114814814815,1.9139277777777777
0.98,-8.019320615384611e-06,-1.9980535384615393e-05,-5.137992615384614e-05,-9.03287230769231e-06,2.5551834615384654e-06,-4.86763e-06,-7.155544615384621e-06,-4.046460230769214e-06,1.9130340740740743,1.1372003703703701,1.6033,-1.6538762962962967,0.7910550000000005,1.8244066666666663,1.37368,1.4511111111111115,1.4005348148148147,-1.56465074074074,-1.8687240740740743,-1.9219859259259258,1.9006537037037037,1.0408125925925926,1.858872962962963,-1.6668507407407402,1.2052344444444445,1.7899451851851853,1.644624814814815,1.1264574074074074,2.0129977777777777,1.9722644444444442,1.0063537037037038,1.9245233333333334
0.99,-1.41553e-05,-2.35548e-05,-2.32191e-05,-1.0742366666666666e-05,-8.67221e-06,-5.091423333333334e-06,2.4617866666666666e-06,-6.49017e-06,1.88528,1.1843433333333333,1.6167266666666666,-1.5536133333333333,0.671397,1.97122,1.39248,1.3803933333333334,1.4435066666666667,-1.7201166666666667,-1.8543966666666667,-1.94168,1.9430233333333333,1.03932,1.8651433333333334,-1.7510033333333332,1.2004566666666667,1.7577133333333332,1.61001,1.1252633333333333,1.9739066666666667,2.0343333333333335,1.00307,1.9483966666666668
1.0,-1.2175679462571898e-05,-2.97093e-05,-2.530654357005754e-05,-1.17494e-05,-2.1433797312859494e-06,-7.114425950095865e-06,-1.0199859884836983e-06,-1.3724943570057543e-05,1.866931111111111,1.243275925925926,1.6297003703703705,-1.5938922222222225,0.6667716296296298,-1.9825629629629629,1.4493214814814817,1.3923259259259262,1.444398888888889,-1.6138877777777776,-1.359058148148141,-1.857535185185185,1.444700370370363,1.0330596296296295,1.88528,-1.8030766666666667,1.1900133333333331,1.761594074074074,1.587777037037037,1.144657037037037,1.9710740740740742,-2.0329896296296295,0.9933698518518519,1.9958396296296297
1.01,-8.431194615384649e-06,-3.5622784615384646e-05,-3.382161538461528e-05,-1.3440861538461406e-05,-1.9302630769229693e-06,-7.101311923077254e-07,8.702336923076973e-06,5.293708461535816e-07,1.9000540740740746,1.3063914814814819,1.6041918518518516,-1.7038518518518526,0.7935912962962974,-1.8375359259259252,1.5057181481481483,1.4478292592592594,1.4366374074074073,-1.352190740740739,1.8848325925925906,-1.6352255555555537,-2.000317777777777,1.0636429629629633,1.864993333333333,-1.8091877777777776,1.1686777777777777,1.776065925925926,1.616571481481482,1.143015185185185,1.9830085185185187,-1.9868918518518517,1.0299240740740745,2.003598888888889
1.02,-1.3182630769230813e-05,-3.299528653846148e-05,-3.7540148076923115e-05,-6.171685384615407e-06,-1.568746346153813e-06,-6.358902692307704e-06,-1.8850746153845933e-06,-1.8895986538461486e-05,1.959587777777778,1.3517477777777778,1.5701744444444443,-1.774278888888889,0.9247375555555561,-1.7751766666666666,1.5746488888888892,1.5182511111111112,1.45604,-1.152121111111111,1.611353333333333,-1.452458888888889,-1.9524255555555556,1.1042277777777778,1.8145622222222222,-1.750552222222222,1.1467466666666666,1.810978888888889,1.698186666666667,1.1185477777777777,1.9806177777777776,-1.97167,1.0863166666666668,1.9886777777777775
1.03,-1.8224536538461484e-05,-3.8676363461538515e-05,-1.236274807692225e-05,-1.0571275000000193e-05,-5.971556538461484e-06,-1.3653880769231596e-06,-3.5764832692305486e-06,-1.1400838461537799e-05,2.037164074074074,1.36965,1.56301,-1.8303766666666665,1.1765870370370366,-1.797852222222222,1.683265185185185,1.5588348148148148,1.4799066666666665,-1.103178888888889,1.4896081481481485,-1.4739403703703702,-2.016878888888889,1.0934811111111111,1.7847251851851853,-1.6849107407407409,1.1288414814814816,1.8384366666666665,1.7602548148148147,1.105421851851852,1.9651037037037038,-1.9931544444444445,1.0934811111111111,1.980322222222222
1.04,-2.171069999999975e-05,-3.121354230769234e-05,-3.276292692307607e-05,-1.0335685000000304e-05,-4.764338076923518e-06,-2.8276169230770333e-06,-1.3511826923076566e-05,-9.948298076922884e-06,-2.02045962962963,1.3526444444444445,1.5580851851851854,-1.7959151851851856,1.4059062962962956,-1.9169099999999994,1.8100818518518513,1.578532962962963,1.4994548148148146,-1.09572,1.4194818518518517,-1.6896837037037022,1.9765888888888894,1.0496196296296296,1.771892962962963,-1.6647662962962966,1.1155614814814816,1.8663333333333332,1.770401111111111,1.1034814814814815,1.9413814814814816,-2.0104585185185186,1.0233605925925928,2.012547407407407
1.05,-1.9225230769230703e-05,-2.9141192307692107e-05,-4.286614615384764e-05,-1.115550769230819e-05,-1.0548676923077187e-05,-4.351168461538594e-06,-6.2362453846151196e-06,-7.527391538460943e-06,-1.993602222222222,1.3392111111111111,1.540183333333333,-1.6758077777777758,1.533471111111112,0.23901777777785194,1.8996077777777785,1.5554033333333328,1.508401111111111,-1.1091477777777783,1.4739411111111123,0.2461811111111818,1.8915499999999994,1.025001111111111,1.7510022222222217,-1.620753333333333,1.120785555555556,1.885727777777778,1.7263844444444438,1.093033333333333,1.946605555555556,-2.016428888888889,0.9726302222222222,2.0491011111111113
1.06,-1.1333026923076908e-05,-3.357630576923074e-05,-1.4176819230769656e-05,4.257558076922396e-06,-2.1013428846153693e-06,-4.86763e-06,-2.4628659615383253e-06,-1.8076085000001819e-06,-1.9822585185185186,1.3420466666666668,1.5058640740740739,-1.4987107407407396,1.5534677777777772,1.9979307407407407,1.9082566666666663,1.5006503703703697,1.4733455555555552,-1.2118007407407432,1.6198559259259275,1.7650285185185173,1.8813992592592594,1.0276874074074074,1.7237022222222222,-1.640594444444445,1.1524181481481484,1.8936385185185187,1.6877407407407405,1.07155,1.96182,-2.0225481481481484,1.008293333333334,2.046121481481481
1.07,-1.69528e-05,-2.8531058823529464e-05,-3.355339411764732e-05,9.238252745098595e-06,-4.907124117647098e-06,-4.281800588235269e-06,4.739274117647097e-06,-1.3687952941176342e-05,-1.9921096296296297,1.3742718518518522,1.4760270370370367,-1.3602522222222218,1.4728929629629623,2.000313703703704,1.8626077777777776,1.4355977777777778,1.439921111111111,-1.5668933333333352,1.8009825925925933,1.7238507407407413,1.8894592592592594,1.0434992592592593,1.7099703703703704,-1.6656603703703705,1.1539062962962963,1.9097533333333334,1.6943081481481483,1.0778137037037039,1.9534666666666665,-2.0323896296296295,1.0476785185185187,2.0404496296296295
1.08,-1.4435e-05,-3.28985e-05,-5.2369e-05,-6.04257e-06,-2.34989e-06,-4.86763e-06,8.56031e-06,-5.70687e-06,-2.00211,1.42202,1.46633,-1.30117,1.38576,2.01016,1.79263,1.36159,1.43008,2.03433,1.97391,1.98196,1.92557,1.06752,1.70803,-1.66372,1.14406,1.93765,1.73623,1.09572,1.92557,-2.05447,1.06349,-2.05447
1.09,-1.1209684313725911e-05,-2.4581647058822925e-05,-4.725117058823542e-05,1.991156862743413e-06,-1.8529223529416578e-06,-2.939010588235414e-06,-3.946100588235414e-06,5.887889607844101e-06,-2.0159811111111114,1.4599170370370371,1.4900574074074078,-1.2747611111111112,1.2583470370370362,2.039703703703704,1.7386229629629628,1.274014444444444,1.4654348148148153,1.504826296296293,-2.029259629629629,-1.8062062962962944,2.0110559259259264,1.1152681481481486,1.704154074074074,-1.693263703703704,1.1460003703703705,1.969730740740741,1.7602507407407408,1.10378,1.9115396296296296,-2.044922222222222,1.0496188888888887,-2.020602962962963
1.1,-2.3318088461538373e-05,-2.7372311538461625e-05,-2.6068246153846508e-05,-1.2023796153846309e-05,-7.21752e-06,-2.51774e-06,8.366642115384438e-06,-1.4086443269231828e-05,-2.0261307407407405,1.4819925925925928,1.541378148148149,-1.350854444444446,1.150626296296295,-1.8749918518519366,1.7514548148148155,1.1904588888888876,1.560324444444446,1.174198148148145,-2.00211,-1.6265729629629613,-1.8872211111111956,1.1474933333333337,1.6883377777777775,-1.7353348148148153,1.151970740740741,1.977790740740741,1.7760722222222225,1.0998992592592591,1.9172114814814818,-1.9992733333333328,1.0394692592592591,-2.0062792592592595
1.11,-7.16587384615373e-06,-3.639747692307662e-05,-6.0529030769231505e-05,-1.3363392307691536e-05,-4.519013846152689e-07,-2.5435630769233857e-06,-8.689423076922614e-06,1.058737769230885e-06,-2.0379122222222223,1.476628888888889,1.6010566666666672,-1.5330222222222243,1.1073577777777779,-0.23319666666660765,1.8168011111111115,1.0728911111111097,1.66013888888889,0.8119425555555534,1.9783844444444423,-1.3490633333333308,-0.21708555555549602,1.1427166666666664,1.685651111111111,-1.7393644444444447,1.14809,1.96182,1.8033722222222226,1.0840822222222222,1.9372022222222223,-1.9873333333333336,1.0603611111111113,-2.0280666666666667
1.12,-1.2795234615384864e-05,-2.960600769230703e-05,-1.976751153846237e-05,-6.236243076923243e-06,-7.662968076922704e-06,-3.660401538461332e-06,-1.2950223076923243e-05,-3.970276923078701e-06,-2.057306666666667,1.4594640740740739,1.6495511111111114,-1.7307111111111122,1.1603207407407412,1.9212385185185177,1.83694,0.9035512962962953,1.7444407407407412,0.8335768148148158,1.624784444444442,-1.2602837037037038,2.013442222222222,1.1173518518518517,1.6990844444444446,-1.7557737037037038,1.1294418518518516,1.9655514814814816,1.8205314814814815,1.0870637037037039,1.9304855555555553,-2.0126981481481483,1.0827351851851854,-2.0228462962962963
1.1300000000000001,-1.99514692307693e-05,-3.6520136538461584e-05,-3.2068869230769724e-05,-7.6500536538462e-06,9.360808076923545e-07,-5.635856538461586e-06,4.874082884615713e-06,-1.1704265384614307e-05,-0.3835918518517867,1.4290292592592588,1.684160370370371,-1.814411851851852,1.2523781481481489,1.8133711111111106,1.80471,0.7279434814814807,1.7814414814814816,1.298778888888894,0.7446531481481364,-1.7253429629629689,1.9737548148148145,1.106168148148148,1.70803,-1.7530903703703702,1.119143703703704,1.9633166666666664,1.8012811111111107,1.099003703703704,1.91348,-2.03433,1.0536429629629627,-2.023891851851852
1.1400000000000001,-1.88959865384618e-05,-3.9741565384615276e-05,-4.406688653846133e-05,-6.21042e-06,-1.378301730769236e-05,-1.5881118846155941e-06,2.3789404423070903e-06,6.4557415384603865e-06,2.0585,1.3633788888888874,1.7509988888888903,-1.834702222222223,1.2774477777777775,1.7930777777777775,1.8190388888888893,0.6754255555555548,1.7957644444444447,1.8812500000000125,0.034464999999990975,1.613140000000117,1.9582377777777775,1.10378,1.7044566666666665,-1.7339911111111106,1.1275022222222224,1.9466055555555553,1.755929999999999,1.1001977777777776,1.9170622222222224,-2.027174444444444,1.0321644444444442,-2.033435555555556
1.1500000000000001,-1.2956669230769164e-05,-2.663635384615464e-05,-3.629418461538488e-05,-6.9463776923075594e-06,-4.59648769230756e-06,-3.78306076923024e-06,-6.726879615383557e-06,-6.21042e-06,-0.5377151851850901,1.2662544444444428,1.8572344444444462,-0.4285040740739834,1.2114999999999976,1.7906896296296293,1.8035233333333316,0.78105877777778,1.7730807407407403,-1.6553637037037001,0.24050948148148996,-1.9755455555555548,1.9322803703703697,1.1082540740740743,1.6698396296296294,-1.7377225925925925,1.1334688888888889,1.9306385185185182,1.719672222222222,1.1052725925925926,1.92154,-2.01822,1.043797777777778,-2.0408974074074075
1.16,-2.2272261538461762e-05,-3.52354384615378e-05,-2.5887530769230604e-05,-7.708158461538516e-06,-5.164594615384064e-07,-3.5764761538459333e-06,-6.468650769231099e-06,-2.311154615384064e-06,2.0132914814814824,1.1519662962962975,1.9637633333333322,1.7735355555555605,1.021120629629632,1.7290711111111121,1.6197081481481508,0.8693846296296291,1.7809892592592589,-1.6207477777777768,0.6051528888888864,-1.9921111111111105,1.878570370370371,1.1124270370370373,1.65969,-1.733394074074074,1.1291425925925926,1.9118381481481486,1.7052025925925927,1.1181003703703702,1.9146740740740742,-2.02851037037037,1.0548429629629628,-2.0280696296296297
1.17,-1.5835951923076938e-05,-2.3789359615384684e-05,-5.4483198076923e-05,-1.1465396153846126e-05,-2.2982438461538736e-06,-8.676513846153874e-06,-5.6519959615384685e-06,-1.67849e-07,1.8651400000000031,1.037979000000002,0.6646833333334228,1.3844200000000038,0.8271613333333349,1.5522700000000045,1.4730466666666653,0.8553596666666669,1.8946799999999977,-1.5603300000000029,0.5612880000000026,-2.0343299999999997,1.871853333333333,1.1010933333333335,1.6999766666666658,-1.7040033333333338,1.1118333333333337,1.9107933333333333,1.726833333333333,1.1172033333333335,1.90542,-2.05045,1.0433533333333338,-2.01016
1.18,-1.3195542307692324e-05,-2.8644098076923135e-05,7.294998076924649e-07,-8.089038846153838e-06,-5.509975000000029e-06,1.4460823076923242e-06,2.2465976923076757e-06,-3.508692500000112e-06,1.647011851851852,0.9034019629629632,-1.9848003703703705,1.2755074074074073,0.824177037037037,1.2111981481481484,1.7648799999999996,0.8893771481481482,-1.312503703703699,-1.4120240740740742,0.43745207407407416,-2.0456737037037036,1.927951851851852,1.0924362962962963,1.7504033333333333,-1.6813307407407407,1.0906451851851853,1.9167637037037037,1.7501111111111112,1.0888522222222223,1.90542,-2.0373151851851854,0.9911314814814816,-2.0167274074074073
1.19,-2.02581538461538e-05,-3.420251538461521e-05,-4.282742307692281e-05,-8.302079230769297e-06,-7.21752e-06,-4.9709207692308575e-06,-7.398281538461406e-06,-1.82956e-05,1.5119862962962962,0.7989624814814815,-1.796063703703704,1.6000148148148143,1.0306687037037037,0.9493552592592593,-1.8754366666666669,1.0250022222222221,-2.01822,-1.312657037037037,0.3925437037037036,-2.05045,2.008820740740741,1.0531970370370372,1.7708481481481482,-1.668197777777778,1.07155,1.9046766666666668,1.7499618518518518,1.0511074074074074,1.9403337037037036,-2.012995925925926,0.9338384814814815,-2.0346325925925925
1.2,-1.3673269230769153e-05,-3.045171923076983e-05,-3.7004319230769654e-05,-8.302079230769153e-06,4.86763e-06,-7.036757307692153e-06,-1.0793997307692423e-05,-5.145222692308754e-06,1.4770744444444446,0.773449,-1.6140400000000006,-1.154353333333305,1.2317933333333326,0.9421933333333329,-1.52138777777778,1.1740522222222212,-2.0495488888888884,-1.5374988888888872,0.544726999999999,-2.0535766666666664,2.0437333333333334,0.9815822222222226,1.7859155555555555,-1.6502944444444445,1.0746844444444443,1.8776755555555558,1.7223566666666668,1.0187322222222224,2.0034477777777777,-2.0258244444444444,0.9193661111111111,1.1288422222221919
1.21,-2.4263890384615306e-05,-2.093597307692248e-05,-4.3595623076923056e-05,-1.02388e-05,-1.2595155769230526e-05,2.001280192307031e-07,3.0987555769230326e-06,2.0994074999999517e-05,1.4521603703703705,0.8161199999999994,-1.3627848148148176,-1.926308888888889,1.300567777777777,1.0230596296296284,-1.1680837037037055,1.3065381481481477,1.9843533333333343,-0.9423407407407922,0.7306291481481475,-2.0443303703703704,2.05045,0.9465205555555558,1.8008366666666664,-1.625527037037037,1.092884074074074,1.8355992592592598,1.6895344444444451,1.019329259259259,2.0395514814814812,2.045967407407408,0.9509961481481477,1.9998637037037041
1.22,-3.439944807692373e-05,-3.825028269230721e-05,-2.3698978846154053e-05,-7.04967e-06,-8.105184615384925e-06,-3.950910769230632e-06,-7.3079007692306315e-06,-4.1962769230858834e-07,1.4790122222222224,0.8758000000000002,-1.1001922222222216,-1.947197777777778,1.3423455555555557,1.1364529629629634,-1.1501800000000006,1.3095233333333332,1.9843533333333336,1.773088888888888,0.688853592592592,-2.03836,2.0385092592592593,0.9465205555555557,1.8247107407407408,-1.6464159259259261,1.1316766666666669,1.7759177777777775,1.6298529629629628,1.0551366666666668,2.05447,1.965404444444444,0.9808361481481482,1.98196
1.23,-3.0413023076923156e-05,-2.1897830769231014e-05,-4.134259615384622e-05,-8.444107307692374e-06,1.039370000000077e-06,-5.913454615384594e-06,-8.29562461538467e-06,-1.6972161538461528e-05,1.6270144444444459,0.9515927777777783,-0.9833713333333343,-2.0146355555555555,1.2913177777777773,1.1145211111111106,-1.4063522222222236,1.2134377777777774,-1.9403399999999988,1.7080366666666678,0.4458073333333326,-2.0034455555555555,2.01016,0.9681544444444444,1.8315744444444444,-1.6655111111111112,1.1548044444444445,1.747872222222222,1.6015088888888889,1.0943766666666668,2.0553655555555554,1.9143755555555557,0.9417459999999997,1.973462222222222
1.24,5.375048461538536e-05,-2.1342723076922814e-05,-3.6268361538461406e-05,-6.8559969230769005e-06,-9.205886923076902e-06,-2.5177384615387482e-06,-1.562286153846198e-06,5.797253846153206e-06,1.9733055555555556,1.047972962962963,-1.2310418518518522,-2.0501444444444443,1.1889711111111112,1.0278311111111111,-1.6652133333333337,1.18837,-1.7520496296296295,-0.9005681481481527,0.4414810000000001,-2.030902962962963,2.0356762962962964,0.9389112592592592,1.8664862962962963,-1.6632722222222223,1.158535185185185,1.7236992592592593,1.5980759259259258,1.098108148148148,-0.8273114814814861,1.9260107407407407,0.9019097407407407,1.952125185185185
1.25,1.1633250192307593e-05,-1.3466684615384648e-05,-1.6126461538461408e-05,-5.20333e-06,-1.2853386538461514e-05,-4.067114615384648e-06,-9.980575192307759e-06,-1.045184634615392e-05,-1.76964888888889,1.0509640740740742,-1.4908011111111108,2.0104603703703705,1.199859259259259,0.983670925925926,-1.92840037037037,1.2577518518518516,-1.72818,-1.9076588888888888,0.6260399629629627,2.0232948148148147,-2.0243333333333333,0.8905710000000001,1.9219859259259258,-1.624484814814815,1.1513737037037037,1.7234037037037038,1.6294066666666664,1.0630440740740743,-2.013443703703704,1.9710722222222221,0.886244,1.9542159259259257
1.26,-4.896030384615387e-05,-3.314701346153862e-05,-4.279833846153844e-05,-7.840495000000048e-06,-2.072291923076937e-06,-8.114861923076937e-06,9.389889423076861e-06,8.676513846153874e-06,-1.5482400000000012,1.0285833333333334,-1.5764366666666665,2.0289633333333326,1.2487999999999997,1.0111243333333328,0.6807966666666228,1.3750199999999988,-1.7254933333333335,-2.000763333333332,0.6982529999999996,1.9698800000000007,-1.9792800000000004,0.8849009999999998,1.9470533333333333,-1.6194099999999998,1.156143333333333,1.7147466666666666,1.669093333333333,1.0406633333333335,-2.0316466666666666,2.01285,0.8835586666666667,1.9846499999999998
1.27,-4.60423461538462e-05,-3.7714407692307795e-05,-3.6629884615384794e-05,-1.0083907692307705e-05,8.134230769230549e-07,-3.576476153846198e-06,-6.249154615384649e-06,1.0458261538459002e-06,-1.5200418518518524,1.0190322222222217,-1.555996296296296,-1.996138518518516,1.2626711111111113,1.0481248148148152,1.9949425925925934,1.5206388888888895,-1.6866974074074073,1.8788692592592573,0.6967605185185181,1.8724551851851847,-1.96003037037037,0.9117571111111117,1.944515925925926,-1.6350707407407412,1.1744988888888888,1.7052025925925927,1.674615925925926,1.046333703703704,2.053129629629629,1.4487218518517868,0.8631179999999997,1.996885925925926
1.28,-2.4228411538461433e-05,-3.5493669230769184e-05,-4.9379969230769234e-05,-1.19173e-05,1.4460823076922966e-06,-2.51774e-06,-1.5455061538461627e-05,-2.4015311538461484e-05,-1.672675185185187,0.9189186296296284,-1.5058662962962956,-1.8032225925925915,1.3034062962962967,1.0907981481481483,-0.48743629629633567,1.55496,-1.7077388888888894,1.780095925925926,0.6600579999999998,1.8652929629629633,-1.9548085185185187,0.9553230000000003,1.93765,-1.6734155555555557,1.1515192592592591,1.717134814814815,1.662675185185185,1.0660274074074074,2.0273185185185185,-2.0165744444444442,0.8561058518518521,1.9824140740740739
1.29,-7.882459807692406e-06,-3.31050346153846e-05,-3.320187115384636e-05,-1.3392415384615357e-05,-1.12459e-05,-4.234964615384594e-06,-9.454434038461556e-06,-2.0303317307695557e-06,-1.5289955555555412,0.7004912222222218,-1.4511088888888886,-1.7765155555555558,1.3929233333333335,1.120336666666667,-1.8548455555555552,1.5339166666666664,-1.8253033333333337,1.4940777777777634,0.6687113333333334,1.9586911111111114,-1.9864366666666669,0.960545,1.9430233333333335,-1.6865477777777775,1.1230244444444444,1.7183300000000001,1.6511922222222222,1.0545444444444443,-2.05671,-2.006577777777778,0.8840063333333334,1.9506366666666666
1.3,-2.0497017307692586e-05,-8.121320576923518e-06,-2.8172826923077034e-05,-6.88182e-06,-1.1387926923077032e-05,-5.151676730769452e-06,9.180063846154067e-06,-7.123911346153708e-06,1.9574933333333335,0.5954544814814815,-1.4344007407407406,-1.9710725925925923,1.3941203703703704,1.201501111111111,-1.7295211111111113,1.449172962962963,-1.9637625925925923,-1.8945355555555559,0.7200354814814813,-0.36165851851850883,-2.034184814814815,0.9187690000000001,1.9585403703703703,-1.678198148148148,1.118248148148148,1.6992337037037037,1.6380574074074075,1.04738,-2.044778148148148,-2.0197125925925925,0.898329,1.9207937037037037
1.31,-1.8663576923076783e-05,-3.4460746153845936e-05,-3.40734e-05,-8.411827307692225e-06,-4.641678461538709e-06,-3.2020511538460986e-06,-4.467372692307968e-06,8.134230384616488e-07,1.9292922222222222,0.71779811111111,-1.7295151851851833,1.923622592592593,1.2955003703703707,1.3487592592592583,-1.6371625925925928,1.3072818518518523,-1.9804681481481483,-1.7772640740740735,0.771062555555555,-1.9539170370370367,-1.7392166666666917,0.8581948148148152,1.964656666666667,-1.6890840740740738,1.141224074074074,1.6696911111111112,1.5910622222222226,1.04738,-2.0619329629629632,-2.039553333333333,0.8625211851851855,1.9307840740740738
1.32,-6.029658461538594e-06,-1.4680369230768437e-05,-2.3382646153846484e-05,-7.811443076923011e-06,3.292424615384417e-06,-1.588109230769297e-06,-4.609399230769297e-06,-8.58613538461512e-06,1.9322811111111113,0.9878497777777814,0.15039222222229331,1.8736466666666676,1.1731577777777762,1.5867333333333364,-1.5759922222222211,1.1230188888888852,-1.964058888888889,-1.9018455555555578,0.8934058888888906,0.19157555555562755,2.0101666666666653,0.7940388888888884,1.9564511111111114,-1.7151988888888894,1.153911111111111,1.6301522222222218,1.5231733333333328,1.0361911111111106,-2.009714444444443,0.22827444444451972,0.8065715555555552,1.9389933333333331
1.33,-1.6591276923077044e-05,-5.2420596153846696e-05,-4.654909807692321e-05,-7.55322e-06,7.424090384619934e-08,-2.4370428846153693e-06,-2.433814134614991e-06,-5.965100384614961e-06,1.9713718518518524,1.2362611111111124,1.7166866666666667,1.8806533333332842,0.9836706296296285,1.7936744444444448,-1.5865881481481519,0.7395810370370339,-1.948995555555554,-2.0338825925925925,1.0755785185185198,1.6950562962962947,1.9291425925925925,0.7856832222222222,1.8751411111110612,-1.7159407407407405,1.1522692592592594,1.5900162962962958,1.515415925925926,1.0105233333333332,-1.9367548148148146,2.0373155555555553,0.7564407777777775,1.8882655555555552
1.34,-1.082462941176473e-05,-2.119511372549013e-05,-4.573722941176473e-05,-7.178025882352902e-06,-4.3673711764705365e-06,-9.409430980392002e-06,-4.097497254902193e-06,-1.84634e-06,2.026871851851852,1.3774107407407412,1.7551807407407412,-1.9015459259259246,0.8105998148148138,1.8082974074074072,0.04267037037039301,0.42059281481481403,-1.680732592592591,-1.888565555555554,1.3369748148148166,1.416648888888887,1.9237737037037037,0.7979178888888889,-2.010608518518518,-1.7057962962962963,1.1603240740740741,1.536004444444444,1.5410788888888889,0.99501,-1.942724444444445,1.9809207407407403,0.7289878148148148,1.8360448148148145
1.35,-1.12459e-05,-4.38086e-05,-2.36667e-05,-3.02129e-06,-7.21752e-06,-5.53902e-06,-6.04257e-06,-1.19173e-05,2.05447,1.4623,1.74832,-1.5469,0.648569,1.72415,1.58718,0.290043,-1.32131,-1.24074,1.88528,1.05544,1.99405,0.789563,-1.88931,-1.68789,1.17629,1.45425,1.53884,0.974868,-2.01016,1.9014,0.700938,1.75235
1.36,-2.7273829411764585e-05,-2.863641372548845e-05,2.278796862745116e-05,-6.710678823529171e-06,-7.536759215685071e-07,-4.146864901960243e-06,-4.703071176470829e-06,-2.1030517647062435e-06,-1.975247777777776,1.4236611111111086,1.576288518518517,-1.4135174074074082,0.7612151111111143,1.6528285185185168,0.009551111111015809,0.5945589259259341,-1.5446585185185275,-1.0539417037037118,1.2959440740740495,1.0078420740740788,-2.0449222222222216,0.723616703703703,-1.7799474074074053,-1.6937111111111114,1.2100077777777787,1.3586092592592578,1.4536474074074053,0.9290641851851844,-1.919300370370368,1.9322822222222242,0.6154469999999984,1.7342896296296295
1.37,-3.301785576923139e-05,-2.388944999999949e-05,-2.7565984615382355e-05,-1.46029e-05,-7.036741346159498e-07,-5.1645905769224e-06,-7.230431538461764e-06,-7.71460942307681e-06,-1.8872196296296286,1.1410811111111059,1.7407107407407452,-1.5113877777777796,0.918769037037039,1.518549259259257,-1.262821481481469,1.0597632222222289,-1.9839044444444502,1.7319070370371006,0.16620770370368965,1.573007777777788,-2.053574814814815,0.7012364074074072,-1.6781970370370358,-1.707731851851852,1.2595374074074082,1.2828203703703693,1.3557777777777764,0.8950469999999996,-1.8032262962962948,-1.8860259259260095,0.5647189999999995,1.697292592592592
1.3800000000000001,-2.6507276923076266e-05,-2.7462730769230497e-05,-4.765623846153831e-05,-1.2459546153846116e-05,-7.010935384615423e-06,-3.69268e-06,2.362801538461693e-06,-8.689423076922614e-06,-1.7917333333333325,0.6490171111111067,-1.9018422222222184,-1.613142222222223,0.9981455555555558,1.429627777777778,-1.0250013333333323,1.2049344444444454,2.0316466666666657,0.8692352222222214,0.08056755555555821,1.8168,2.0253788888888886,0.6248469999999988,-1.5030344444444421,-1.7057966666666666,1.3047477777777785,1.2376044444444436,1.3217577777777776,0.8490932222222214,-1.830224444444445,-1.9421277777777777,0.580087,1.6194088888888885
1.3900000000000001,3.4602726923072788e-06,-1.4538292307692969e-05,-4.0871276923076384e-05,-6.165229999999711e-06,-4.86763e-06,-7.191696923076757e-06,-2.4790053846151364e-06,-7.759804230769479e-06,-1.7007240740740737,0.401345814814814,-1.7190737037037032,-1.6840107407407412,0.92876574074074,1.5273500000000009,-1.039172444444445,1.2071751851851849,1.9346633333333327,1.4123168888888942,0.49832607407407703,1.9510777777777788,2.0328381481481483,0.4942971851851844,-1.2725177777777765,-1.7043077777777778,1.3703977777777783,1.1637507407407401,1.3210114814814815,0.77673137037037,-1.8608114814814816,-1.9861407407407412,0.5166768148148142,1.591807037037037
1.4000000000000001,-4.628766538461627e-06,-2.980292307692286e-05,-3.40734e-05,-5.6584517307691865e-06,-4.628766538461627e-06,-1.6978596153841744e-06,-5.487376730768878e-06,-1.0329173461540227e-06,-0.24766962962956995,0.6194756296296329,-0.41671037037031033,-1.8532025925925963,0.7867279629629604,1.6647644444444467,-1.2226911111111138,1.1355544444444434,1.7490666666666648,-1.8206781481481409,0.6182820370370378,-1.6346277777777707,0.37791962962956616,0.471321,-1.2704325925925923,-1.7007262962962961,1.39785,1.1076548148148146,1.32937,0.6294720370370358,-1.8141174074074067,-0.38373703703697193,0.3847849629629623,1.568381481481481
1.41,-2.5164438461537733e-05,-3.344073461538443e-05,-3.216894807692335e-05,-6.400869615384115e-06,2.2562813461538917e-06,-3.899264615384434e-06,-1.1988313461538916e-05,-2.18204e-06,1.763533333333334,0.805676222222222,1.5921044444444454,1.3897899999999859,0.5671063333333339,1.8378399999999997,-1.575988888888888,0.9994860000000003,1.615377777777778,-1.4327611111111116,0.6731872222222222,-1.2013566666666673,-1.7765188888888899,0.5286134444444442,-1.3647288888888884,-1.692367777777778,1.3799477777777778,1.09572,1.3401077777777777,0.5876963333333334,-1.7854655555555556,2.0356733333333334,0.3692682222222222,1.514668888888889
1.42,-2.8863603846153874e-05,-3.4008842307692294e-05,1.528721153846177e-05,-3.098756923076592e-07,-9.987067307692236e-06,-5.681053076923188e-07,-9.199431153846149e-06,-8.353725384615406e-06,1.69192,0.7950832222222222,1.3909877777777782,1.4891588888888903,0.4948939999999998,1.9460048148148144,-0.6203718518518877,0.7867282962962978,1.6562622222222214,-1.497659999999997,0.764496851851851,-0.9396572962962964,-1.6789381481481485,0.7992607037037018,-0.4105955555555929,-1.687445925925926,1.3269755555555558,1.1528651851851845,1.2726737037037053,0.7619607777777759,-1.875289999999998,1.9967340740740744,0.49384977777777644,1.3578596296296301
1.43,-7.876000769230328e-07,-2.7656369230769197e-05,-3.64491230769231e-05,1.0471209999999625e-05,-3.0083784615384503e-06,-7.5273969230769005e-06,-6.5202969230769004e-06,-1.1065092307692296e-05,1.7639866666666655,0.8559565185185175,1.3759188888888887,1.4218722222222218,0.6139552592592573,1.97391,1.4026240740740796,0.589934000000002,1.7841266666666653,1.4485774074073494,0.9550249999999975,-1.1164596296296263,-1.7357866666666655,0.9836708888888877,1.8906544444444469,-1.6558177777777783,1.3057955555555556,1.2261155555555547,1.059611851851854,1.0406642962962935,1.326526666666605,1.9258655555555566,0.7345081481481454,1.3721818518518507
1.44,-3.285325961538469e-05,-3.6200542307692316e-05,-3.77661e-05,-6.455734615386545e-07,-9.35114173076928e-06,-3.2924290384614836e-06,-2.0109621153845947e-06,-3.52483e-06,0.6391700000000438,1.0984066666666643,1.4891566666666658,1.7939733333333292,0.863416666666665,1.9457100000000003,1.1977733333333345,0.5223466666666668,1.8087433333333334,1.6314966666666681,1.3347366666666636,-1.7335499999999948,-0.5787466666667085,0.8620736666666682,1.892000000000001,-1.6167266666666669,1.3186233333333333,1.271623333333333,1.019179999999999,1.12392,1.7402633333333344,1.8664833333333333,0.9600986666666655,1.5630099999999982
1.45,-1.043570499999997e-05,-2.1523444230769266e-05,-3.5145057692307674e-05,-1.8482817307692218e-05,1.239500115384599e-06,-2.1529890384615675e-06,1.4493137692308064e-06,-1.188821923076926e-05,-2.055070740740741,1.3606955555555564,1.5691314814814816,-0.993067407407425,1.069310370370371,1.9770381481481483,1.2147762962962967,0.5969460740740745,1.7941225925925925,1.5691314814814816,1.6244840740740747,0.9857618518518696,1.67625185185185,0.6997449999999996,1.683717777777777,-1.5770385185185183,1.3048996296296296,1.317878888888889,1.1200429629629634,1.1304874074074074,1.6462648148148147,1.9381033333333337,1.0305237037037036,1.8628996296296307
1.46,-1.49386e-05,-2.685589230769202e-05,-3.2136669230769006e-05,-4.070993076923099e-05,-2.388623076923253e-06,-3.18914e-06,-2.698501538461406e-06,-7.6952469230769e-06,1.8287344444444447,1.4924374074074074,1.5494333333333334,-1.4602140740740743,1.1650966666666667,0.8062729629629681,1.569426666666666,0.8510327407407405,1.8194837037037037,1.7004259259259258,1.4257511111111114,1.4611059259259258,1.3314544444444447,0.6772159629629629,1.4435011111111113,-1.5276485185185185,1.1949351851851853,1.41963,1.3601037037037034,1.1679344444444446,1.5876307407407408,-1.9384000000000003,0.9802394814814815,-1.856485555555556
1.47,-2.230457692307644e-05,-3.2239961538461694e-05,-3.122e-05,2.2014034615384926e-05,-4.344712692307712e-06,-8.22461e-06,-1.6068315384615094e-05,-5.53902e-06,1.6444788888888895,1.4564822222222227,1.5079611111111113,-1.3463777777777775,1.3092211111111105,1.1270511111110806,-1.1060144444444173,1.015155555555555,1.879463333333333,1.8969177777777764,1.1274988888888902,1.5898699999999988,1.200007777777778,0.6530450000000001,1.300717777777778,-1.49811,0.9045958888888908,1.5907633333333324,1.6784888888888871,1.050961111111112,1.550927777777778,-1.6869933333333342,0.9766585555555554,-1.4788655555555574
1.48,-1.0377630769230714e-05,-1.853446346153866e-05,-4.093909230769234e-05,-3.566472884615368e-05,6.84305557692396e-07,-4.073570384615407e-06,-4.49965115384622e-06,-5.219465769230736e-06,1.7360799999999972,1.276697037037039,1.5392925925925918,-1.397397037037036,1.2671492592592604,-1.8930440740740746,-1.572560740740743,1.0361881481481483,1.9540659259259257,-1.8896096296296336,0.9700940000000011,0.8916177777778298,1.192399629629628,0.621265851851852,1.273715925925925,-1.4815518518518518,0.40433025925926436,1.820530740740738,1.0587177777778283,0.8235801111111128,1.4051618518518545,-1.714748518518516,1.069164074074073,-1.2074681481481497
1.49,-1.0484119230769185e-05,-6.74301596153846e-05,-3.8305138461538845e-05,1.1229743076921963e-05,-5.112945576923033e-06,-6.029658461538373e-06,7.830814423076812e-06,-2.2724207692308134e-06,-0.9166829629629814,1.0827414814814809,1.5930037037037037,-1.4391748148148147,1.1686825925925923,-1.9706218518518526,-1.4472348148148149,1.0152992592592591,1.9689844444444444,-1.5583874074074067,0.8984784444444444,-1.9282488888888887,1.4848292592592607,0.597394,1.4348492592592599,-1.5292925925925929,0.03133174074074015,-0.9217507407407595,-1.4687192592592575,0.6654289999999996,1.115709999999999,-1.935563333333334,1.1318233333333334,-1.1090014814814815
1.5,-9.50930807692311e-06,-2.4254180769230624e-05,-3.44091e-05,2.7759673076917797e-06,-2.2595092307691863e-06,-4.53193e-06,-1.6475073076922965e-05,1.4331714615385057e-06,-1.596581111111108,0.963230888888888,1.5947944444444442,-1.5093011111111123,1.0124671111111099,-1.1257111111110816,-1.4896077777777783,1.0173866666666669,1.941682222222222,-1.3038522222222226,0.9211564444444448,-1.7357833333333323,1.0854266666666392,0.6123138888888892,1.5840511111111113,-1.6274655555555557,0.02954155555555653,-1.6243311111111098,-1.1069144444444443,0.5975434444444444,0.9941155555555563,1.999866666666667,1.1145188888888888,-1.1852366666666674
1.51,-6.54612e-06,-2.676546923076958e-05,-4.0593684615384595e-05,-2.2814538461538594e-05,-5.20333e-06,-2.1562153846156495e-06,-1.510643538462112e-06,-2.065834615384946e-06,-1.1097437037037035,0.8065714814814814,1.5904666666666667,-1.8100829629629633,0.8732634814814815,1.912885185185185,-1.5570425925925926,1.0676722222222224,1.9021433333333333,-1.5880770370370376,0.9700937777777777,-1.6100107407407407,-1.6992299999999998,0.6773652592592593,1.6323885185185185,-1.6783403703703703,0.3086933333333336,-1.4722974074074073,-1.1803148148148148,0.593813037037037,1.149285925925926,-0.7324218518518566,1.0985559259259259,-1.3239955555555556
1.52,-2.0513136538461552e-05,-1.9877203846153654e-05,-3.527417307692303e-05,-2.04033788461538e-05,-3.56357057692311e-06,-3.925087692307676e-06,1.9044451538460958e-06,-6.207192115384594e-06,-1.0876633333333323,0.7956798888888885,1.6570077777777774,1.9955400000000005,0.923693037037037,1.8215762962962962,-1.5185525925925927,1.1195896296296295,1.8808040740740744,1.9455585185185205,0.9414479629629631,-1.7140011111111104,-1.7515988888888878,0.7728528148148146,1.6203011111111114,-1.7375777777777774,0.5157819629629622,-1.5285437037037033,-1.5451103703703692,0.6699048888888882,1.3841244444444443,-1.7302633333333335,1.1424225925925924,-1.2750588888888894
1.53,-2.3899107692307748e-05,-2.6536305769230873e-05,-2.9438207692307747e-05,8.766891346153737e-06,-5.53902e-06,-4.19623e-06,1.2808196153846126e-05,-3.2440107692307625e-06,-1.4421633333333364,0.9305563333333345,1.7590566666666674,1.811426666666665,0.9842700000000005,1.8221733333333332,-1.4663266666666663,1.1494333333333335,1.8530566666666666,1.506613333333331,0.9318990000000003,-1.933623333333335,-2.0034500000000013,0.7815059999999996,1.5603299999999998,-1.8718533333333347,0.7291370000000015,-1.7201200000000019,-1.8235133333333349,0.9238420000000023,1.3575666666666655,-1.7228033333333337,1.266256666666668,-1.087663333333332
1.54,-1.9612576923076614e-05,-3.2162492307692396e-05,-3.13620230769232e-05,-1.5351769230769298e-05,-2.8276169230769008e-06,-6.417004615384649e-06,-1.2020592307692395e-05,-9.489940769230703e-06,-1.8033748148148177,1.0851281481481492,1.7908388888888886,1.7175796296296306,1.0752785185185194,1.8341040740740742,-1.472297407407408,1.161216296296296,1.867674444444445,1.508102222222225,1.0242503703703718,2.0209081481481475,2.0502937037037032,0.736597111111111,1.5577874074074074,-1.976893703703704,0.8792314814814829,-1.9054240740740758,-1.9228818518518525,1.2177666666666687,1.2207477777777782,-1.7569670370370372,1.5440607407407443,-1.118398518518521
1.55,-1.7223942307692295e-05,-3.3285796153846074e-05,-3.9199280769230675e-05,-2.5248373076922775e-05,-4.45445884615389e-06,-2.04001307692311e-06,-5.325983461538368e-06,-1.02388e-05,-1.995838518518519,1.1501796296296298,1.7703966666666664,1.8206818518518526,1.1275022222222224,1.846044814814815,-1.55733925925926,1.1136237037037033,1.9409311111111116,1.744437777777779,1.1454044444444451,2.015381481481482,2.0414981481481482,0.7762839259259265,1.545855185185185,-1.9737570370370368,1.010526296296297,0.5383074074074468,-1.986737407407408,1.3401103703703707,1.3690525925925945,-1.7680122222222223,1.8452944444444461,-1.3401088888888903
1.56,-1.5687469230769187e-05,-3.161375192307689e-05,-3.082939807692306e-05,-1.0580960192307594e-05,-8.076127307692297e-06,-2.2595092307691868e-06,-5.3518082692307805e-06,-9.286584038461555e-06,-1.961823333333333,1.122131111111111,1.7635333333333334,1.9103444444444446,1.0724477777777774,1.88081,-1.635526666666667,1.0688644444444444,1.9949433333333335,1.822623333333333,1.202698888888889,-2.035674444444444,-1.5903177777777626,0.8567025555555556,1.6064322222222223,-1.8785677777777774,1.1404833333333335,1.9403399999999997,-1.6015033333333184,1.34951,1.6619266666666668,-1.8575311111111117,1.5831499999999852,-1.5227255555555559
1.57,-1.4460873076922967e-05,-2.8821667307692337e-05,-3.325997307692297e-05,-7.86632192307684e-06,-4.389903076922967e-06,-7.314356538461483e-06,-2.504825384616157e-06,-6.88182e-06,-1.8854351851851852,1.061257037037037,1.7981466666666666,1.9568985185185184,0.9888922222222224,1.9166144444444444,-1.7262377777777775,1.0426037037037037,-0.3934388888888791,1.7486144444444445,1.1716588888888888,-2.0213544444444445,2.0561118518518517,0.8877360370370371,1.6243314814814815,-1.7401144444444447,1.2371618518518517,1.817394814814815,-0.3732988888888791,1.3542803703703703,1.7049014814814816,0.3303296296296203,-1.929593703703704,-1.6767018518518515
1.58,-1.4293023076922955e-05,-3.070994615384619e-05,-3.3711876923077044e-05,-1.9948219230762257e-06,-2.2917883076925806e-06,-2.3692573076922167e-06,-2.2272299999997874e-06,2.4919169230770443e-06,-1.859319629629629,1.02724,1.8251585185185186,1.9809237037037046,0.9636781851851856,1.9088537037037037,-1.778310370370371,1.0436485185185187,-2.0386585185185186,1.7044555555555572,1.086318888888887,2.0437340740740733,-2.01613111111111,0.9032522592592596,1.6225444444444441,-1.6161277777777767,1.2619262962962954,1.7202707407407396,-1.9207888888888847,1.3786048148148151,1.5683870370370334,1.7990440740740696,-1.8306740740740721,-1.7666666666666686
1.59,-1.4189730769230702e-05,-3.2911361538461404e-05,-3.381520769230819e-05,7.062578461537469e-06,-8.147140769230702e-06,-4.557753076922812e-06,-2.388625999999603e-06,-9.102594615384649e-06,-1.843656666666667,1.042906666666667,1.822173333333333,-0.22424666666674042,0.9927746666666672,1.899161111111111,-1.8297844444444453,1.0518577777777778,-2.05134,1.827538888888891,0.9968005555555548,2.012398888888889,-1.994497777777778,0.930108555555556,1.618066666666667,-1.568383333333333,1.208963333333333,1.6605911111111107,-1.6641666666666635,1.3830788888888887,1.3960555555555543,1.6118033333333328,-1.7322055555555549,-1.8808055555555567
1.6,-8.808857115384631e-06,-3.771445384615409e-05,-3.384099230769182e-05,1.2917949423077742e-05,-8.327926730769535e-07,-2.85344e-06,-6.116811346153892e-06,-7.64037288461537e-06,-1.8748411111111116,1.0966151851851855,1.800242222222222,-1.938695925925925,1.0449911111111116,1.885727777777778,-1.914524444444445,1.0681166666666668,2.0497037037037034,1.8902051851851365,0.979493777777778,1.8864751851851351,-1.9513825925925918,0.9715860000000003,1.6389533333333333,-1.5546614814814812,1.100199259259258,1.6226940740740738,-1.481097407407407,1.3442862962962958,1.413510740740742,1.6304522222221753,-1.768607777777779,-1.9412322222222222
1.61,-2.2238329411764735e-05,-3.3724535294117854e-05,-4.11231e-05,1.1881106666664604e-06,2.4321694117647317e-06,-5.953710784313803e-06,-2.5111576470589264e-06,-1.17494e-06,-1.9634611111111118,1.1219796296296296,1.7865103703703704,-1.8444033333333332,1.1189940740740745,1.8994596296296296,-1.9291474074074073,1.089898888888889,2.0156829629629627,-1.932575555555555,1.0054529629629632,-2.045818148148148,-1.8454433333333329,1.0118720740740743,1.5983748148148145,-1.5510792592592593,0.9548779259259254,1.6053844444444445,-1.4545433333333335,1.3069862962962961,1.5462974074074078,-1.9309351851851837,-1.9503359259259267,-1.9003507407407403
1.62,-1.54421e-05,-3.3402e-05,-3.77661e-05,-3.69268e-06,-3.52483e-06,-6.88182e-06,-1.47707e-05,-3.18914e-06,2.03836,1.12392,1.76443,-1.79263,1.1924,1.88931,-1.88931,1.09572,1.99002,-1.94168,1.03127,-1.99808,-1.83694,1.07961,1.59927,-1.57913,0.817761,1.64761,-1.4905,1.31728,1.61135,-1.66372,1.97794,-1.7604
1.6300000000000001,-1.6781658823529173e-05,-4.820561176470829e-05,-3.156228235294166e-05,6.658022549018585e-06,-6.21042e-06,-6.88182e-06,-2.6279894117647902e-05,-5.124339215686636e-06,1.9564514814814806,1.12392,1.75235,-1.7763659259259261,1.180911851851851,1.888867407407408,-1.8196355555555543,1.0699081481481476,2.021504074074075,-0.10488925925915127,1.0869188888888899,-1.981815925925926,-1.7448866666666658,1.1073574074074082,1.6332862962962966,-1.5891203703703705,0.7397301851851844,1.7448825925925946,-1.494679259259259,1.333096666666667,1.6074740740740738,-1.6229874074074082,1.8560396296296282,-1.5533122222222189
1.6400000000000001,-1.904767307692302e-05,-3.122640576923088e-05,-2.959955192307794e-05,2.445435192307896e-05,-9.393104230769118e-06,-7.21752e-06,8.482841153844797e-06,-3.4021751923084835e-06,1.9609248148148153,1.1200392592592592,1.75235,-1.7844207407407409,1.1176503703703695,1.9246748148148154,-1.7501103703703695,1.063340740740741,2.057903333333334,1.9510825925925919,1.1388366666666674,-2.0286588888888897,-1.7049051851851846,1.1431648148148155,1.6473114814814818,-1.59121,0.7212292222222222,1.885430740740743,-1.4827385185185182,1.34145,1.576144444444444,-1.7092251851851867,1.8211285185185182,-1.4011322222222204
1.6500000000000001,-1.0677794615384847e-05,-2.7695100000001005e-05,-3.4873915384614926e-05,-4.0400015384616276e-05,-5.53902e-06,-2.375713076922884e-06,-5.2162392307688835e-06,-1.2666169230769154e-05,0.2000766666666074,1.1328711111111114,1.7223577777777772,-1.7975511111111113,1.0769177777777774,1.9389933333333336,-1.6874466666666663,1.097954444444445,2.030304444444444,1.9685322222222226,1.1409299999999998,-0.2358822222221626,-1.7518977777777784,1.1512200000000004,1.6498477777777771,-1.6270177777777786,0.717052,0.24214888888883057,-1.4851322222222225,1.33742,1.5894200000000005,-1.8861788888888906,1.908556666666668,-1.4318677777777788
1.6600000000000001,-1.116192692307746e-05,-3.2330342307691893e-05,-3.307275769230773e-05,-1.6978623076923243e-05,-2.1691284615383787e-06,-8.160052692307279e-06,-1.0793996538460794e-05,-5.190418461538379e-06,-1.9192974074074063,1.14406,1.6589429629629624,-1.83111962962963,1.0523048148148146,1.938247037037037,-1.67178,1.123322962962963,1.98778037037037,2.0267192592592598,1.0909429629629626,2.057306666666667,-1.8846866666666677,1.1676329629629632,1.612544074074074,-1.715047407407408,0.7543520000000004,-1.8884122222222215,-1.5395877777777782,1.3486144444444446,1.6408940740740745,-2.017475185185186,1.9988270370370376,-1.5191492592592597
1.67,-1.6668746153845935e-05,-3.10521e-05,-3.426707307692297e-05,-1.6523476923076787e-05,-5.497064615384257e-06,-4.0025569230770335e-06,1.5183919230768901e-05,-7.604863269230548e-06,-1.7241462962962961,1.1058677777777777,1.6300033333333335,-1.8451451851851852,1.05946,1.9409337037037038,-1.7107185185185185,1.101982962962963,2.005538888888889,-2.037319259259259,1.0335029629629628,-2.0164329629629627,-1.970025185185185,1.2216407407407408,1.5725625925925926,-1.7842733333333334,0.8713240000000003,-1.8497762962962963,-1.6246318518518519,1.3932188888888888,1.649998148148148,1.93765037037037,-2.0608881481481482,-1.5724114814814814
1.68,-1.8444082692307705e-05,-3.381191923076924e-05,-4.0006251923076885e-05,5.790796153846297e-06,-2.420899038461594e-07,-1.1039305192307142e-06,-1.9386624999999858e-05,-6.213652307692257e-06,-1.6131388888888891,1.033058888888889,1.6896833333333332,-1.871408888888889,1.0344022222222222,1.977932222222222,-1.7501111111111112,1.0769222222222223,2.0294055555555555,-2.0110555555555556,1.0048599999999999,-1.9913633333333334,-2.0392577777777774,1.2658066666666665,1.5451077777777777,-1.8857311111111108,1.1565968888888882,-1.8879688888888888,-1.669988888888889,1.40993,1.6404455555555557,1.7944177777777781,1.5652511111110958,-1.4614100000000003
1.69,-3.255630384615387e-05,-2.7294842307692297e-05,-5.147163846153842e-05,-5.59067115384612e-05,-3.6862242307692584e-06,-6.0167488461538134e-06,-1.320845384615378e-05,-6.378268076923221e-06,-1.7078822222222207,1.0160518518518515,1.7422003703703701,-1.8464925925925926,1.007544074074074,2.0328374074074076,-1.7880029629629628,1.06349,2.029855925925926,-0.5259262962963362,1.0126125925925926,-1.980471111111111,-2.020008518518519,1.2925129629629628,1.5363025925925926,-1.9691362962962957,1.4605129629629614,-2.0077770370370365,-1.6162766666666675,1.3769611111111117,1.6625285185185181,1.7966551851851842,1.9028874074074085,-1.493634814814813
1.7,-9.928969999999879e-06,-2.97093e-05,-4.04258769230769e-05,-2.7979207692306645e-05,3.1245823076922525e-06,-3.937999230769297e-06,-6.985114538461053e-06,-5.810166153846815e-07,-1.9339188888888863,1.082738888888888,1.7386181481481484,-1.8936414814814806,1.0597614814814806,1.9822640740740751,-1.8212792592592588,1.0669229629629629,2.0085181481481484,1.986891111111112,1.0220159259259258,-1.998529259259259,-1.9476474074074082,1.298334074074074,1.5697281481481475,1.456928148148084,1.6391066666666654,1.393672222222158,-1.4909518518518532,1.2831151851851863,1.7496577777777766,1.9921085185185163,1.6996811111111136,-1.9036381481481428
1.71,-3.970278076923063e-06,-2.9489803846153874e-05,-3.284680384615387e-05,1.324718846153838e-05,-1.4932144230769191e-05,-2.84698096153842e-06,2.1872063461538433e-05,-7.55322e-06,2.022246666666667,1.1722566666666663,1.6972933333333335,-1.9430233333333333,1.1010933333333333,1.9510833333333333,-1.8570866666666663,1.0728933333333333,2.004793333333333,1.9081100000000004,1.0406666666666664,-2.028963333333333,-1.8785700000000005,1.2837133333333333,1.6086699999999998,1.9980733333333338,1.6113533333333345,1.97122,-1.4945266666666657,1.2138866666666668,1.8248566666666666,-2.02896,1.427393333333335,1.7429466666666698
1.72,-1.345698076923074e-05,-3.5684094230769224e-05,-3.588422307692307e-05,1.2204555961538366e-05,2.149761153846162e-06,-3.789520576923052e-06,-8.967023461538487e-06,-1.1416948076923098e-05,1.9867362962962962,1.1997137037037038,1.6871437037037036,-1.9292996296296296,1.093928888888889,1.9603292592592592,-1.8863266666666667,1.07558,2.0167274074074073,1.8878174074074074,1.0890051851851854,-2.0310462962962963,-1.850821111111111,1.331751851851852,1.61941,2.03119925925926,1.3812874074074064,2.0213481481481486,-1.6935629629629638,1.2135866666666666,1.8066566666666664,-1.9806229629629628,1.282668148148148,1.4367874074074065
1.73,-2.2582138461538396e-05,-3.07680461538462e-05,-3.91089e-05,-1.279527692307796e-05,-9.2575330769231e-06,2.724323076923253e-06,-1.32601e-05,-7.4241030769232536e-06,2.014485555555556,1.1655462962962964,1.7083355555555555,-1.906614074074074,1.080050740740741,1.9610766666666668,-1.8676803703703704,1.076774074074074,2.023444074074074,1.9097525925925924,1.1206362962962964,-2.026720740740741,-1.9009492592592592,1.3997874074074075,1.6306014814814815,-1.9043829629629632,0.9964990370370375,2.0365677777777775,-1.9103466666666666,1.243128148148148,1.7216114814814816,-1.95779,1.2393955555555556,1.6841622222222217
1.74,-1.8540869230769186e-05,-3.336326538461541e-05,-3.509341153846134e-05,5.145224230769407e-05,-2.85344e-06,-2.040011923076813e-06,-2.5306503846151862e-06,-1.1284634615384593e-05,-1.1489822222221924,1.111835555555556,1.7375755555555554,-1.9439211111111108,1.0621466666666668,1.934067777777778,-1.8262011111111112,1.07961,2.0231455555555558,1.9483966666666666,1.1225766666666668,-2.0088166666666667,-1.9125844444444444,1.4108255555555556,1.66014,-1.740263333333334,0.6924341111111121,1.9470488888888893,-1.9667455555555557,1.2112022222222225,1.6082188888888895,-1.9546633333333334,1.1225777777777783,-0.9663644444444164
1.75,-1.188502115384622e-05,-3.2075371153846115e-05,-3.111020192307703e-05,-4.7727288461539146e-05,-7.430560384615407e-06,3.6474896153845935e-06,-7.10131249999978e-06,-6.668779615384593e-06,-2.005687407407408,1.0804981481481484,1.74429,-1.9700266666666666,1.0472307407407409,1.91348,-1.7610022222222224,1.07558,2.028367037037037,1.97794,1.051855555555556,-2.020456296296296,-1.8982655555555557,1.40591,1.71952037037037,-1.6256762962962963,0.6576707407407396,1.7569725925925932,-1.8993033333333338,1.11257925925926,1.5701744444444443,-1.7783070370370382,0.7688242592592607,-1.2162774074074085
1.76,-1.8418259615384595e-05,-3.013538076923081e-05,-2.7181884615384406e-05,-2.0913346153845833e-05,-7.556444230769109e-06,-4.596484038461407e-06,-7.701696346154e-06,8.650681923078686e-07,-1.9221318518518509,1.0655796296296296,1.7383196296296295,-1.9670414814814812,1.0263418518518517,1.9224355555555557,-1.710276296296296,1.0696096296296296,2.043285555555556,1.97794,0.974272592592592,-2.041345185185185,-1.8863248148148148,1.4029248148148148,1.7821870370370376,-1.7808466666666691,1.0545381481481524,1.4973651851851826,-1.7501107407407397,0.9156355555555539,1.6477596296296309,-1.4978107407407388,0.4584894444444426,-1.0730403703703713
1.77,-1.4680369230769154e-05,-3.2278696153846264e-05,-2.3402019230768827e-05,-1.3008333076925336e-05,-2.7372361538462698e-06,-4.3769926923078464e-06,-4.945098076923e-06,-3.4473619230770002e-06,-1.8458977777777774,1.0478277777777776,1.7420511111111112,-1.9251144444444444,1.00307,1.9555588888888888,-1.7178811111111112,1.05544,2.048658888888889,1.983751111111111,0.9475651111111112,-2.0356755555555552,-1.8620055555555557,1.4032233333333333,1.844997777777778,-1.1570377777777479,1.3606977777777782,1.2917666666666667,-1.7219111111111112,0.7958288888888886,1.733993333333333,-1.5124344444444449,0.5196611111111121,-1.2962433333333343
1.78,-1.4293015384615406e-05,-3.11037461538462e-05,-3.841166153846238e-05,4.8508392307694316e-05,-6.068393076923099e-06,-5.293712307689662e-07,-7.682333846153957e-06,-7.55322e-06,-1.82083,1.032461111111111,1.7624925925925925,-1.915121851851852,0.9945636296296296,1.9533192592592592,-1.7213140740740742,1.0639407407407409,2.0395540740740743,1.9730114814814814,0.9677065185185185,-2.023444074074074,-1.8906562962962963,1.3768114814814816,1.9043811111111113,-0.7488274074074124,1.4082951851851853,1.4457388888888891,-1.7111714814814816,0.7840422592592593,1.6667062962962962,-1.6062811111111113,0.7486825185185187,-1.485280740740741
1.79,-2.4073413461538486e-05,-2.524516538461539e-05,-5.039348461538465e-05,-5.9244303846154235e-05,2.3208390384615675e-06,-1.1897936730769107e-05,5.1097173076923535e-06,-9.76430499999997e-06,-1.8424625925925926,1.0448425925925926,1.7933762962962962,-1.945111111111111,0.9924740370370371,1.9130340740740743,-1.6914740740740744,1.081847037037037,2.036568888888889,1.9261607407407408,0.99501,-1.273861111111131,-1.9524229629629628,1.294301481481482,1.9953877777777773,-1.4360418518518538,1.3471174074074077,1.7122155555555554,-1.6549155555555555,0.926527481481481,1.683862592592592,-1.692368518518518,0.9324959629629628,-1.7307125925925917
1.8,-2.2549851923076938e-05,-2.971575576923081e-05,-3.7369053846153814e-05,-1.4273655769230812e-05,-3.970278076923063e-06,-1.255965230769248e-05,-6.717197884615405e-06,-6.436371923076937e-06,-1.84903,1.0621500000000001,1.79666,-1.9994200000000004,1.0017263333333333,1.8852799999999998,-1.6637199999999999,1.09169,2.0544733333333336,1.8772266666666664,0.9923246666666666,2.041043333333333,-1.9631666666666663,1.1722599999999992,-0.6418566666667114,-0.9010166666666632,1.30117,1.6999799999999992,-1.710720000000001,1.0473766666666673,1.839630000000001,-1.9403366666666688,0.9077289999999991,-1.9712200000000013
1.81,-6.881819230769374e-06,-3.0419438461538495e-05,-3.536450769230779e-05,4.067117692307152e-06,3.912176153846198e-06,-8.482842307691956e-06,-2.453176923076152e-07,-1.0032262307692275e-05,-1.814265555555555,1.062149629629629,1.7932270370370371,-2.00613,1.0024728148148148,1.842016296296296,-1.6365662962962961,1.08766,-2.0261237037037034,1.8357474074074074,0.9857595185185184,1.9916633333333331,-1.9258614814814805,1.0925885185185178,-1.9442203703703693,-0.746294629629631,1.3307103703703709,1.619555185185184,-1.8512670370370403,1.0540896296296292,1.8863262962962961,1.8144151851851815,0.7110835185185161,-1.9543629629629613
1.82,-1.62814e-05,-2.6494326923076888e-05,-3.572607692307703e-05,-7.624227307692149e-06,-5.932821923076962e-06,-3.550656153846044e-06,-4.357624230769259e-06,-1.0109686538461515e-05,-1.7663703703703701,0.9906853333333326,1.822021481481482,-2.0137422222222225,0.999039,1.8096418518518516,-1.594048518518518,1.08766,-1.9894229629629627,1.836495925925926,0.978897,1.9830085185185187,-1.8584259259259255,1.046335185185185,-1.8715544444444443,-0.9968018518518545,1.3641274074074075,1.487519999999999,0.43401666666670513,1.0155977777777776,1.8387337037037033,1.5468951851851842,0.5207056296296286,-1.7839744444444432
1.83,-1.2104517307692217e-05,-3.1013365384615565e-05,-3.7688630769231134e-05,1.0135512115383524e-05,-7.178785384615566e-06,-1.0451845961539827e-05,-6.843085384615566e-06,-4.774021346153892e-06,-1.7962088888888892,0.8965383333333331,1.8888611111111113,-2.0437322222222223,0.986953,1.7903922222222222,-1.5446622222222222,1.0831833333333334,-1.9689844444444444,1.8535066666666666,0.9547265555555554,1.9931544444444445,-1.8056066666666666,1.0800555555555558,-1.86111,-1.4564844444444456,1.3280211111111109,1.3047477777777774,1.7156455555555554,1.045138888888889,1.7796455555555555,1.5173533333333338,0.46773966666666666,-1.6771466666666663
1.84,-1.0626146153845932e-05,-3.06938403846153e-05,-3.893778653846173e-05,-2.14201423076933e-05,-2.8017938461540667e-06,-8.876654230768956e-07,-9.083227307692584e-06,-5.6584517307692585e-06,-1.9000488888888887,0.8356654444444446,1.915121851851852,-2.0592462962962963,0.986953,1.7653255555555556,-1.5386948148148147,1.0724455555555557,-1.9546614814814816,1.8546977777777778,0.9010145555555557,1.971667037037037,-1.7709933333333334,1.1349592592592592,-1.8515633333333334,-1.9160162962962957,1.1812151851851855,1.2092603703703704,1.6380574074074075,1.1131774074074074,1.7987477777777776,1.7035607407407403,0.49280544444444435,-1.6067288888888889
1.85,-1.5584176923077044e-05,-3.1962411538461204e-05,-3.263376538461584e-05,1.5235499999983635e-06,-2.8663515384614775e-06,-4.493195384615567e-06,-8.134230384616598e-07,-6.397637307692217e-06,-1.96585,0.8273100000000005,1.883489629629629,-2.03836,0.9872514444444446,1.754579629629629,-1.6179151851851874,1.0421566666666662,-1.9154211111111106,1.8582740740740746,0.862074,1.9364566666666663,-1.7865081481481502,1.1679314814814814,-1.783228888888887,1.7654792592592556,1.084085555555557,1.3483129629629653,1.6280662962962964,1.1218311111111106,1.9281044444444466,1.907807407407408,0.577998000000002,-1.586730740740742
1.86,-2.236264615384619e-05,-3.07938692307693e-05,-3.562278461538422e-05,-6.417002307692771e-06,-4.454460769230704e-06,2.1949923077042172e-07,-1.1568693076921919e-05,-4.9192761538460545e-06,-1.9546611111111107,0.8616261111111116,1.8566377777777776,-2.0271711111111106,0.9887436666666666,1.7232499999999997,-1.7380244444444457,1.025001111111111,-1.8803599999999998,1.8888666666666671,0.871025666666667,1.9103511111111107,-1.8991544444444457,1.1552499999999997,-1.6713288888888873,1.6923700000000022,1.193741111111113,1.4072444444444436,1.6489477777777783,1.0912422222222222,2.030304444444445,1.9309388888888888,0.6727396666666674,-1.6919177777777799
1.87,-1.5151640384615173e-05,-2.6700911538461478e-05,-2.2327201923076514e-05,-2.8276119230769658e-05,-2.679134230769261e-06,3.9057026923090563e-07,1.1136140384614323e-06,-4.060663653846002e-06,-1.9504859259259262,0.8783362222222223,1.862154444444445,-1.9812140740740738,0.9993375555555557,1.6792429629629628,-1.7887492592592593,1.0196277777777778,-1.8690207407407406,1.9216892592592594,0.8944501851851853,1.8930414814814813,-2.007771481481482,1.1313829629629628,-1.5697270370370366,1.892441481481435,1.2987811111111116,1.2610307407407395,1.686247407407408,1.1054211111111116,2.045972222222222,1.8830422222222216,0.6587154074074068,-1.828442222222222
1.8800000000000001,-1.0113772549019595e-05,-3.1433913725490136e-05,-3.545239019607852e-05,-5.683836862745459e-06,-4.966362745097807e-06,-2.0372276078427766e-06,1.836136078431335e-05,-5.789149411764732e-06,-1.9865918518518522,0.8696828888888887,1.9101959259259262,-1.9659992592592592,1.0133637037037038,1.6574562962962962,-1.7821870370370367,1.035444074074074,-1.8567866666666666,1.92557,0.9004175925925926,1.881105925925926,0.034165555555579985,1.1033274074074073,-1.5097448148148145,-1.74026074074074,1.3560722222222223,1.1413737037037035,1.7838281481481486,1.1752448148148151,2.0468625925925927,1.8144118518518517,0.5894865925925924,-1.7792022222222217
1.8900000000000001,-1.1245900000000144e-05,-3.2394900000000424e-05,-3.9108899999998856e-05,-9.567410000003297e-06,-1.5610000000001004e-05,-1.1581599999997706e-05,-1.695279999999828e-05,-8.728159999999928e-06,-2.0262800000000003,0.8338749999999996,1.965850000000001,-1.9537699999999985,1.047380000000001,1.6355199999999996,-1.732199999999999,1.03932,-1.8369399999999994,1.937650000000001,0.8943009999999995,1.8570799999999994,1.8933399999999987,1.0634900000000003,-1.454250000000001,-1.5871800000000016,1.4300800000000007,1.0916900000000007,1.8691700000000018,1.2367100000000004,-2.04239,1.8409700000000024,0.5599450000000009,-1.655659999999997
1.9000000000000001,-1.15816e-05,-2.8409298039215745e-05,-3.32342e-05,-2.7395615686274087e-05,4.656994705882293e-06,3.2914117649465954e-09,-1.709099215686365e-05,-8.507653725489414e-06,-2.0441811111111114,0.8256692962962965,1.993900740740741,-1.9015440740740739,1.0834859259259262,1.6253803703703704,-1.6943081481481477,1.03932,-1.8129192592592591,1.98121888888889,0.872368296296296,1.83694,1.8317207407407394,1.0636392592592592,-1.4998985185185194,-1.7034088888888927,1.4288855555555544,1.13122888888889,1.9486955555555572,1.25283,-2.042240740740741,1.9367548148148162,0.6152981111111127,-1.5303366666666645
1.9100000000000001,-1.6778494230769118e-05,-3.097788461538479e-05,-3.27306e-05,-7.546764230769117e-06,-1.0264627884615837e-05,-2.0852034615385292e-05,1.8334334615385294e-05,-3.611982884615441e-06,1.8946840740741586,0.8414844074074077,2.0019607407407407,-1.8740951851851846,1.107063703703704,1.6197085185185183,-1.676108148148148,1.0509622222222224,-1.7971074074074072,2.037017407407408,0.8505857777777774,1.8408207407407409,1.8009881481481478,1.0711022222222224,-1.5652496296296305,-1.9355629629629665,1.3283240740740723,1.2025503703703715,2.0400029629629644,1.2411877777777776,-2.038658518518518,1.9812140740740745,0.679454185185186,-1.451562592592592
1.92,-2.0903669230769593e-05,-3.2162492307692105e-05,-3.500299230769267e-05,-8.870186923076758e-06,-1.648798461538422e-05,-1.7946956923073614e-06,-2.291785384615292e-05,-1.0432461538461703e-05,2.0267222222222223,0.8495408888888888,2.020902222222222,-1.8485822222222221,1.1292888888888886,1.5956877777777778,-1.657898888888889,1.0572266666666665,-1.7890477777777778,0.23051333333340862,0.8307416666666669,1.8333622222222223,1.8311244444444439,1.0527477777777783,-1.5625655555555567,1.980171111111113,1.240744444444445,1.2555122222222217,-2.008373333333334,1.2071711111111114,-2.043281111111111,2.0361222222222213,0.7313747777777778,-1.4551422222222212
1.93,-1.7772634615384706e-05,-2.8075992307692096e-05,-2.9470438461538006e-05,3.86053e-06,5.7972511538465185e-06,2.5435630769229555e-06,2.494494230769261e-05,-1.5493746153844334e-06,2.02225,0.8652068148148145,-1.7590588888887893,-1.8679766666666662,1.1471944444444442,1.5874785185185187,-1.65566,1.0669229629629629,-1.7808385185185187,-2.0470162962962966,0.8106001851851855,1.8139640740740746,1.9236225925925905,0.9833727777777793,-1.2917692592592653,1.8802137037037046,1.2019518518518524,1.2838566666666662,-1.9748048148148152,1.1967285185185188,-2.061932962962963,-1.7535370370369368,0.661997185185187,-1.5386922222222208
1.94,-1.3453773076922968e-05,-2.8605363461538517e-05,-3.100690961538445e-05,-8.49577096153802e-06,2.2562813461537083e-06,-5.635856538461484e-06,-4.970900000003859e-07,-5.345349807692418e-06,0.3804574074073972,0.8587915185185185,-2.033438518518518,-1.8861755555555557,1.1488362962962964,1.5506296296296296,-1.6847614814814815,1.0642362962962963,-1.752941111111111,-2.0529833333333336,0.7870264444444445,1.7778574074074074,0.3774740740740643,1.1072085185185188,-1.2031422222222226,1.9691333333333336,1.180911111111111,1.336227777777778,-1.9415307407407407,1.1622637037037036,2.029854444444444,1.967042222222222,0.5338349629629628,-1.6152344444444446
1.95,-1.9786882692307705e-05,-3.35892173076923e-05,-3.3082467307692345e-05,-4.606171346153852e-06,-2.6642809615384737e-05,-4.86763e-06,-2.7869405769230957e-05,-1.35958e-05,-2.036567777777778,0.8217894444444446,-1.9868844444444445,-1.9005044444444443,1.14406,1.494528888888889,-1.6847555555555556,1.0523044444444445,-1.7147455555555555,1.5683855555555408,0.7524122222222224,1.7277300000000002,-1.8843866666666673,1.4855788888888877,-1.9622711111111082,-1.4922888888888743,1.085426666666667,1.4448499999999997,-1.9689855555555553,1.0070951111111117,1.9367522222222224,1.9801711111111109,0.6472266666666662,-1.8253055555555548
1.96,-1.929620384615387e-05,-2.7185103846153873e-05,-3.376996923076924e-05,-7.353091153846148e-06,9.393111923076951e-06,-7.746891153846187e-06,-1.632013461538445e-05,-6.216875769230741e-06,-2.003745555555556,0.7430130000000006,-1.917656666666667,-1.9179577777777777,1.131525925925926,1.4523033333333335,-1.644771481481482,0.996800370370371,-1.7020633333333335,1.9771911111111118,0.7167531481481486,1.700126666666667,-1.6531274074074085,1.5664425925925947,1.1773337037037068,-1.7518955555555578,0.9284692592592612,1.5069111111111106,1.7842770370370407,0.6312625185185213,-1.9136311111111146,1.9864425925925937,1.0827399999999971,1.9309377777777805
1.97,-1.4344669230769297e-05,-3.07551384615385e-05,-3.2407815384615394e-05,-9.050947692307824e-06,1.3247184615384605e-05,-3.2278653846152743e-07,9.838591538461053e-06,-1.0923107692307703e-05,-1.955110370370371,0.6431983703703715,-1.8664818518518524,-1.946159259259259,1.1136211111111114,1.3941155555555564,-1.5919548148148153,0.8901230000000013,-1.6507414814814823,1.8867781481481491,0.6373798518518528,1.6592422222222225,-1.4327648148148178,1.0166438148148227,1.0560332592592576,-1.3568159259259307,0.6437947407407436,1.5451088888888886,1.290127037037042,0.22812585185185602,-1.4648411111111153,1.695646666666671,1.4411170370370339,1.3605485185185258
1.98,-1.6500896153846126e-05,-3.216894807692306e-05,-3.351820384615387e-05,-7.611321923076936e-06,-2.4144476923077473e-06,-2.737236153846126e-06,2.5538873076922884e-05,-5.819845961538469e-06,-1.9363066666666666,0.5827726666666665,-1.796656666666666,-1.9792800000000002,1.0849766666666667,1.299826666666666,-1.5764433333333334,0.7909053333333328,-1.5643566666666662,1.824853333333333,0.5478596666666661,1.64761,-1.491843333333335,0.15307866666666414,0.35315333333329435,-1.149433333333334,0.628427666666668,1.4555866666666655,1.1695733333333334,0.2739300000000017,-1.5844966666666687,1.60061,0.9332446666666593,0.7627066666666656
1.99,-1.628785576923081e-05,-3.13878e-05,-3.454787884615387e-05,-8.424738846153839e-06,8.88955423076919e-06,-7.101299807692639e-07,-7.2820776923076755e-06,-2.8502121153845947e-06,-1.9712251851851854,0.5818770370370372,-1.6874448148148145,-1.9933037037037038,1.0861692592592593,1.2109044444444443,-1.5922566666666667,0.7580819259259259,-1.54287,1.7956133333333333,0.4860910740740739,1.657452962962963,-1.6878892592592598,0.0,-1.6735696296296276,-1.3630874074074084,0.8173140370370378,1.3233940740740737,1.1346629629629628,0.7069063703703724,1.2840092592592773,1.4964692592592586,0.10339507407407184,1.0521574074074094
