X [s],L_Quad: EMG 1 [Volts],L_Hamstrings: EMG 2 [Volts],L_AnteriorTibialis: EMG 3 [Volts],L_Calf: EMG 4 [Volts],R_Quad: EMG 5 [Volts],R_Hamstrings: EMG 6 [Volts],R_AnteriorTibialis: EMG 7 [Volts],R_Calf: EMG 8 [Volts],L_Quad: Acc 1.X [g],L_Quad: Acc 1.Y [g],L_Quad: Acc 1.Z [g],L_Hamstrings: Acc 2.X [g],L_Hamstrings: Acc 2.Y [g],L_Hamstrings: Acc 2.Z [g],L_AnteriorTibialis: Acc 3.X [g],L_AnteriorTibialis: Acc 3.Y [g],L_AnteriorTibialis: Acc 3.Z [g],L_Calf: Acc 4.X [g],L_Calf: Acc 4.Y [g],L_Calf: Acc 4.Z [g],R_Quad: Acc 5.X [g],R_Quad: Acc 5.Y [g],R_Quad: Acc 5.Z [g],R_Hamstrings: Acc 6.X [g],R_Hamstrings: Acc 6.Y [g],R_Hamstrings: Acc 6.Z [g],R_AnteriorTibialis: Acc 7.X [g],R_AnteriorTibialis: Acc 7.Y [g],R_AnteriorTibialis: Acc 7.Z [g],R_Calf: Acc 8.X [g],R_Calf: Acc 8.Y [g],R_Calf: Acc 8.Z [g]
0.0,0.0,0.0,0.0,0.0,0.0,0.0,0.0,0.0,0.0,0.0,0.0,0.0,0.0,0.0,0.0,0.0,0.0,0.0,0.0,0.0,0.0,0.0,0.0,0.0,0.0,0.0,0.0,0.0,0.0,0.0,0.0,0.0
0.01,0.0,0.0,0.0,0.0,0.0,0.0,0.0,0.0,0.0,0.0,0.0,0.0,0.0,0.0,0.0,0.0,0.0,0.0,0.0,0.0,0.0,0.0,0.0,0.0,0.0,0.0,0.0,0.0,0.0,0.0,0.0,0.0
0.02,0.0,0.0,0.0,0.0,0.0,0.0,0.0,0.0,0.0,0.0,0.0,0.0,0.0,0.0,0.0,0.0,0.0,0.0,0.0,0.0,0.0,0.0,0.0,0.0,0.0,0.0,0.0,0.0,0.0,0.0,0.0,0.0
0.03,0.0,0.0,0.0,0.0,0.0,0.0,0.0,0.0,0.0,0.0,0.0,0.0,0.0,0.0,0.0,0.0,0.0,0.0,0.0,0.0,0.0,0.0,0.0,0.0,0.0,0.0,0.0,0.0,0.0,0.0,0.0,0.0
0.04,0.0,0.0,0.0,0.0,0.0,0.0,0.0,0.0,0.0,0.0,0.0,0.0,0.0,0.0,0.0,0.0,0.0,0.0,0.0,0.0,0.0,0.0,0.0,0.0,0.0,0.0,0.0,0.0,0.0,0.0,0.0,0.0
0.05,0.0,0.0,0.0,0.0,0.0,0.0,0.0,0.0,0.0,0.0,0.0,0.0,0.0,0.0,0.0,0.0,0.0,0.0,0.0,0.0,0.0,0.0,0.0,0.0,0.0,0.0,0.0,0.0,0.0,0.0,0.0,0.0
0.06,0.0,0.0,0.0,0.0,0.0,0.0,0.0,0.0,0.0,0.0,0.0,0.0,0.0,0.0,0.0,0.0,0.0,0.0,0.0,0.0,0.0,0.0,0.0,0.0,0.0,0.0,0.0,0.0,0.0,0.0,0.0,0.0
0.07,0.0,0.0,0.0,0.0,0.0,0.0,0.0,0.0,0.0,0.0,0.0,0.0,0.0,0.0,0.0,0.0,0.0,0.0,0.0,0.0,0.0,0.0,0.0,0.0,0.0,0.0,0.0,0.0,0.0,0.0,0.0,0.0
0.08,0.0,0.0,0.0,0.0,0.0,0.0,0.0,0.0,-1.7123585185185186,0.559348074074074,-1.619711111111111,-1.674612962962963,0.8647574074074074,1.2525288888888888,-1.3589081481481482,0.7377905925925926,-1.4755777777777777,1.5682337037037037,0.525032074074074,1.513331851851852,-1.4893096296296295,0.0,-1.513331851851852,-1.4858766666666665,0.8407377407407407,0.9574133333333333,0.7686744814814815,0.8887796296296296,1.5648007407407407,1.0912477777777776,0.0,1.513331851851852
0.09,-1.9974066666666662e-05,-3.37377e-05,-3.267466666666667e-05,-7.553213333333343e-06,9.791206666666651e-06,-7.66511333333334e-06,-3.3010366666666637e-06,-4.028380000000005e-06,-1.9980766666666667,0.652598,-1.8785666666666667,-1.9725666666666668,1.0178366666666667,1.44082,-1.60464,0.8647589999999999,-1.6999766666666667,1.7859166666666666,0.580087,1.74563,-1.5079566666666666,0.07788199999999999,-1.3468233333333333,-1.7832299999999999,1.02455,1.1319733333333335,0.796277,1.2474533333333333,1.6811766666666668,1.5495866666666667,0.22156106666666664,-1.9980733333333331
0.1,-1.39933173754089e-05,-2.951054131229555e-05,-3.561495868770445e-05,-1.0163680142389858e-05,-7.504705106792338e-06,-2.7164986877044508e-06,-1.5791106561477746e-06,-4.518623438522254e-06,-1.9509322222222223,0.6135078518518519,-1.8502222222222222,-1.9910666666666668,1.0363366666666667,1.3778555555555556,-1.6138874074074074,0.8310400370370371,-1.6495485185185186,1.7611462962962963,0.5899340370370371,1.6946048148148147,-1.908707037037037,0.7686745925925925,-1.5786781481481482,-1.8291803703703704,1.0484248148148148,1.283857037037037,0.9254832222222222,1.2623725925925926,1.7342914814814814,-1.14048,0.6282782222222223,-1.7080333333333333
0.11,-1.1817689595375729e-05,-2.9087705202312135e-05,-3.156212562620422e-05,-8.970717803468203e-06,-2.1602794797687863e-05,-9.132099595375729e-06,-1.0935095183044314e-05,-1.2700269171483636e-05,-1.9388440740740742,0.592172,-1.7726351851851851,-2.027023333333333,1.0899029629629629,1.312211111111111,-1.6570044444444445,0.7844902222222222,-1.62344,1.8145622222222222,0.600229,1.6620781481481481,1.7936774074074073,1.171064074074074,-0.8774433333333334,-1.7101192592592593,1.069161851851852,1.474835925925926,1.3144455555555554,1.2104522222222223,1.6789433333333335,-1.3410007407407407,0.6531945185185185,-1.440965925925926
0.12,-1.572233038461539e-05,-3.157441615384616e-05,-3.418504038461538e-05,-8.67264038461539e-06,-1.2065782692307686e-05,-9.141322538461561e-07,-2.704956192307698e-06,-2.069709615384612e-06,-1.9510833333333333,0.5953048888888889,-1.67849,-2.0446288888888886,1.1709133333333333,1.2528277777777777,-1.7456277777777778,0.7282415555555556,-1.6359700000000001,1.8884166666666666,0.5939624444444445,1.6959522222222223,1.6015088888888889,1.022313888888889,1.5468966666666668,-1.1825566666666667,0.9882960000000001,1.5961322222222223,1.847682222222222,1.0164954444444445,1.5943422222222223,-1.0039622222222224,0.8432746666666666,-1.5697222222222222
0.13,-2.4462289595375723e-05,-3.144991329479769e-05,-3.3427244508670516e-05,-1.034458670520231e-05,-5.03548e-07,-7.304840809248553e-06,-9.634333757225439e-07,-2.0394160115606923e-06,-1.8863251851851852,0.5524847037037037,-1.4432055555555554,-2.0170285185185186,1.2450659259259258,1.2387996296296295,-1.8779685185185186,0.6360364074074074,-1.6810314814814815,1.8636525925925926,0.5536787037037038,1.7162392592592592,1.7872585185185184,0.7030268518518519,1.4457374074074074,-0.47147025925925923,0.8174628518518519,0.8077662962962963,-1.7090785185185184,0.7285401111111112,1.6643192592592593,-1.0733403703703703,1.1750951851851852,-1.79054
0.14,-2.7308947976878582e-05,-2.8472286705202315e-05,-3.516782080924857e-05,-8.833915202312142e-06,-3.3501946820809006e-06,4.53193e-06,-1.1933806936416093e-06,-4.4882695953757165e-06,-1.787851111111111,0.6091810000000004,-1.4044129629629636,-1.9692803703703703,1.2719251851851852,1.2626737037037037,-1.9704722222222224,0.6151490000000001,-1.7198240740740742,1.7890525925925924,0.5656150000000001,1.7818911111111113,-1.0176896296296414,0.8641624074074081,1.4129151851851853,-0.5729258148148157,0.9039984074074079,-1.86887074074074,-1.29430074074074,0.5166771481481478,1.7210155555555555,-1.422466296296297,1.3839766666666669,-1.9039325925925927
0.15,2.0125153846153876e-05,-3.064151307692308e-05,-3.3141186923076925e-05,-8.56031e-06,-7.515776538461536e-06,4.457043076923073e-06,-3.151696538461536e-06,-8.819833038461517e-06,-1.2022499999999998,1.0160473333333333,-1.0840822222222224,-1.927801111111111,1.2658077777777776,1.2966877777777779,-1.9716722222222223,0.7349555555555555,-1.84142,1.750558888888889,0.6942247777777778,1.9358622222222222,-1.837841111111111,1.2617811111111112,1.4743877777777776,-1.2129866666666667,1.1637533333333334,-1.0648366666666669,-1.1104922222222222,0.4699781111111111,1.7912877777777778,-1.7590599999999998,1.3472677777777777,-1.9040788888888889
0.16,-1.6766515606936407e-05,-3.122e-05,-3.30663e-05,-8.703257398843931e-06,-8.56031e-06,-8.39246e-07,-7.739495876685945e-06,-1.125135687861275e-06,1.4296307407407407,1.2731151851851852,1.5640551851851852,-1.8591707407407407,1.237904074074074,1.377108888888889,-1.6667025925925927,0.930556037037037,0.6807933333333336,1.7187737037037036,0.8291005185185185,-0.8374592592592591,-1.6092655555555555,1.5756948148148149,1.508254814814815,-1.5674896296296297,1.2185074074074074,2.006883333333333,-1.216124074074074,0.6009752592592592,1.8825962962962963,-1.8843862962962963,1.1979248148148147,-1.8427622222222222
0.17,-2.9473048461538456e-05,-3.0106975384615357e-05,-3.627996153846149e-05,-1.1382762307692321e-05,-5.08583092307701e-06,-1.0936029000000133e-05,-4.76821115384616e-06,-5.662974846153793e-06,1.418887777777778,0.9532327777777775,1.4761811111111112,-1.9091514814814814,1.1545018518518517,1.494084814814815,-1.2118003703703704,1.0093370370370371,1.5216825925925925,1.610602962962963,1.0067962962962964,-1.9121422222222222,-1.5013896296296296,1.6823692592592592,1.5377951851851852,-1.8251537037037038,1.062742962962963,1.2534207407407378,-1.6134400000000002,0.8740094074074075,1.9306366666666666,-1.25551296296296,1.089898888888889,-1.7941225925925925
0.18,-2.3946466666666682e-05,-3.228299999999999e-05,-4.694183333333335e-05,-6.210420000000027e-06,-5.650920000000006e-06,-1.1189940000000149e-06,-5.03548e-07,-3.636733333333303e-06,-0.7143633333333332,0.573373,1.4448433333333333,-1.9309366666666665,1.0661766666666668,1.6274633333333335,-1.0017253333333334,1.0164933333333332,1.4515633333333333,1.4649866666666667,1.2085166666666667,-1.83426,-1.4972133333333333,1.61941,1.57241,0.6378299999999999,0.9950133333333334,0.6458866666666667,0.5236866666666666,1.0849766666666667,1.8718566666666667,1.8678233333333334,1.1131766666666667,-1.8194899999999998
0.19,-1.3644958381502902e-05,-3.155985433526016e-05,-1.5421775144508707e-05,-4.53193e-06,-3.962729152215745e-06,-2.1136714065510594e-05,-7.143782427745647e-06,-1.1557020809248548e-05,-1.6674537037037038,0.531597,1.4259022222222222,-1.9154233333333333,0.9222012592592592,1.801428888888889,-1.0972148148148149,0.964573888888889,1.5088503703703704,1.4560337037037037,1.4168,-1.8511151851851853,-1.7083322222222224,1.4136618518518518,1.5922562962962963,1.8796166666666667,1.054842962962963,2.015384074074074,1.4033714814814815,1.164797037037037,1.764282222222222,1.6294048148148148,1.1098925925925927,-1.9201922222222223
0.2,1.674128959537574e-05,-3.346409479768787e-05,-3.889738959537574e-05,-8.423507398843936e-06,8.39246e-07,-1.4018820809248517e-05,-1.3864515144508486e-06,-3.904190404624258e-06,-1.179118888888889,0.6661751481481482,1.3612940740740742,-1.7530903703703704,0.6394684814814815,2.000168148148148,-1.6214962962962962,0.8086607777777778,1.4300751851851852,1.7289233333333334,1.525414074074074,-1.9474985185185185,0.42477037037037024,1.1486874074074074,1.539588888888889,1.9389944444444445,1.0539474074074073,1.966445925925926,1.2831133333333333,1.16823,1.7630903703703704,1.5913629629629629,1.0299255555555555,-1.9997155555555555
0.21,-1.1881379190751381e-05,-3.23949e-05,-4.019167803468203e-05,-8.22461e-06,-3.0028556069364065e-06,1.4000380809247967e-06,-1.380634566473964e-06,-1.2941836416185024e-05,-1.0361888888888888,0.7761352222222222,1.3145911111111113,-1.4466333333333332,0.24975944444444448,-1.9676433333333334,1.7698022222222223,0.6830345555555556,1.2926644444444444,-1.8745422222222223,1.4918477777777779,-1.9318344444444444,1.4090366666666665,0.8052287777777778,1.4972144444444444,1.6095577777777776,1.037528888888889,1.8830433333333334,1.4161966666666665,1.1731555555555557,1.8566399999999998,1.7250388888888888,0.9542787777777778,-2.0119511111111112
0.22,-4.883310404624271e-05,-2.9858730443159914e-05,-3.70947e-05,-8.206175606936406e-06,3.1153994605009243e-06,5.004109190751459e-06,-7.353999190751458e-06,-1.1476441618497083e-05,-1.3656229629629628,0.7224235185185185,1.4053051851851852,-1.246114814814815,0.049235592592592595,-1.8387307407407407,1.2673014814814816,0.6854215185185185,1.225825925925926,-1.2646162962962961,1.3247425925925926,-1.6990818518518518,1.1691255555555555,0.5116044814814815,1.6320914814814813,-1.861414074074074,1.0960207407407407,1.7827825925925926,1.5021403703703702,1.1755437037037038,1.9019911111111112,1.9589885185185185,1.0330553703703704,0.3704607407407403
0.23,-1.6330558381502868e-05,-2.0932041618497133e-05,-2.7048279190751433e-05,-7.21752e-06,-2.3529622157996133e-05,-2.2798670134874845e-05,-4.208519595375717e-06,-2.1328818381503106e-06,-1.5910655555555544,0.6494642592592592,1.5254151851851852,-1.0461866666666666,0.010145555555555599,-1.6398514814814815,1.2338774074074075,0.7312258148148149,1.1295925925925925,-0.8587915555555555,1.1237722222222222,-1.3730766666666665,1.3286192592592594,0.6051526666666668,1.8088877777777779,-1.7105711111111113,1.1695711111111111,1.6908774074074076,1.5085511111111112,1.1546574074074074,1.8822962962962964,-1.9703292592592594,1.1236214814814816,1.9246744444444444
0.24,-9.880134566473985e-07,-4.289599691714836e-05,-3.485734682080925e-05,-7.012477803468208e-06,-7.030588786127167e-06,-6.134092928709055e-06,-5.089810732177262e-06,2.0352147784200407e-06,1.9367566666666667,0.6964627777777778,1.561218888888889,-1.0737922222222223,0.32271833333333333,-1.5249644444444443,1.5195977777777778,0.7640498888888889,1.119888888888889,-0.8379032222222222,1.02679,-1.1418211111111112,1.5128822222222222,0.8759487777777777,1.8678266666666667,-1.5665933333333333,1.2635655555555556,1.62747,1.4891566666666667,1.1248111111111112,1.8382833333333333,-1.8987144444444444,1.086317777777778,1.9201966666666668
0.25,-9.73526e-06,-2.2622783044315957e-05,-3.2929173988439334e-05,-8.734304797687867e-06,5.141877206165644e-06,-3.823666396917113e-06,-3.9782562042389535e-06,-7.528635992292847e-06,1.8160522222222222,0.816717,1.5664433333333334,-1.2252251851851852,0.7616621851851851,-1.53854,1.7653237037037037,0.8301447777777778,1.2772966666666665,-1.0029174074074074,0.9418949999999999,-0.823879,1.7732344444444443,1.0951214814814816,1.8808025925925926,-1.5130288888888888,1.300572962962963,1.6747640740740741,1.5612181481481482,1.1036307407407406,1.858422962962963,-1.8481348148148147,1.006353814814815,1.9131814814814816
0.26,-8.442492211538446e-06,-2.919929423076924e-05,-3.233842500000003e-05,-1.066165288461538e-05,-3.7685400961537845e-06,2.169128461538485e-06,2.330524250000035e-06,6.930233461538526e-06,-1.936312222222222,0.904745,1.5425714814814815,-1.4144118518518523,1.066626703703704,-1.7190740740740744,1.9392911111111113,1.0241049259259263,1.3856107407407408,-1.3129500000000003,0.932943,-0.6415567037037035,1.9412314814814817,1.2010518518518518,1.8545477777777777,-1.4661807407407406,1.2307455555555553,1.858874444444445,1.6340322222222223,1.0934811111111111,1.914225925925926,-1.8102377777777776,0.9932198148148148,1.9137785185185185
0.27,-1.39315e-05,-3.5584e-05,-3.17235e-05,-8.56031e-06,-2.34989e-06,-2.85344e-06,-1.67849e-07,-1.12459e-05,-1.84097,0.926528,1.5187,-1.62344,1.26088,-1.98196,1.96182,1.23671,1.29311,-1.59524,1.04738,-0.67274,-2.06253,1.20046,1.82083,-1.45022,1.136,1.94571,1.65164,1.07155,1.95779,-1.76846,1.03529,1.95377
0.28,-2.0054747115384585e-05,-3.664116923076931e-05,-2.70237e-05,-8.17458038461531e-06,-1.3619972115384451e-05,-1.262578365384611e-05,-6.5590315384616584e-06,-3.699135769230829e-06,-1.9416807407407415,0.9344352962962964,1.544661111111111,-1.7659237037037046,1.302657777777778,1.9667444444444435,1.8655925925925925,1.3644262962962967,1.2641640740740743,-1.7950188888888894,1.3216100000000013,-0.8966881111111124,-2.024036296296296,1.0796092592592585,1.792779259259259,-1.4081437037037037,1.1637574074074075,1.7954655555555552,1.6790888888888893,1.0517033333333332,1.9598796296296295,-1.7502603703703705,1.0236525925925926,1.947948888888889
0.29,-1.099102851637766e-05,-4.8303731213872954e-05,-4.043941040462432e-05,-1.0089389210019206e-05,3.8042614065509667e-06,-4.357935202312159e-06,-4.912579595376136e-07,-7.957478188824714e-06,1.8772296296296134,0.9230958148148148,1.570324074074074,-1.9300392592592588,1.3250414814814815,1.7805481481481487,1.9073614814814814,1.4288862962962963,1.3820299999999996,-1.852612222222222,1.5967351851851843,-1.212394037037036,1.8954303703703541,0.9184714074074078,1.800242222222222,-1.4096318518518518,1.1840418518518518,1.791884074074074,1.7814370370370367,1.0394692592592594,1.9461574074074075,-1.7988996296296293,0.991727851851852,1.9533222222222222
0.3,-9.753379845857452e-06,-2.275213429672452e-05,-3.562216242774561e-05,-9.828725606936403e-06,3.5047863391137696e-06,3.581105626204218e-06,2.422331714836361e-07,-1.0667034296724518e-05,1.9743577777777779,0.9041476666666667,1.58002,-0.25736666666667407,1.201357777777778,1.7286233333333332,1.9931544444444445,1.428288888888889,1.5007944444444443,-1.7554822222222224,1.8087433333333331,-1.4949766666666664,1.9515244444444446,0.9032527777777777,1.8082922222222222,-1.4081433333333333,1.2000122222222223,1.807401111111111,1.8772255555555555,1.037528888888889,1.95779,-1.8946844444444444,1.0133638888888887,2.0021055555555556
0.31,-1.880524662813102e-05,-2.907476878612715e-05,-3.335094932562615e-05,-7.55322e-06,-5.725304393063576e-06,-4.86763e-06,-5.5451647976878585e-06,-1.071356720616579e-05,2.0071762962962962,0.9324961851851852,1.5561533333333333,1.9977814814814816,1.0088864814814815,1.803965925925926,1.987184074074074,1.4074018518518518,1.5448111111111111,-1.6555192592592594,1.9601803703703704,-1.6620803703703704,1.9246744444444444,0.9756146296296296,1.81277,-1.4320118518518519,1.215675185185185,1.7708474074074074,1.8675274074074075,1.0278362962962961,1.9503362962962962,-1.9289937037037037,1.0461866666666666,2.025981481481481
0.32,-1.0275671753371889e-05,-2.3797731213872813e-05,-2.8292762427745625e-05,-7.099475202312135e-06,-8.075197360308295e-06,-6.496314797687865e-06,-5.4025478420038405e-06,-1.920308959537573e-05,1.9977796296296297,0.9556215185185186,1.5397355555555556,0.3849329629629532,0.8364114814814813,1.83291,1.8141177777777775,1.3751666666666666,1.4891588888888887,-1.4238096296296292,-1.9055718518518514,-1.9246718518518524,1.9246681481481485,1.0742325925925926,1.8727540740740742,-1.5167614814814816,1.235068148148148,1.74832,1.759805185185185,1.0361914814814814,1.9539151851851853,-1.9425755555555557,1.0335029629629628,2.000312962962963
0.33,-1.3464768786127187e-05,-3.161095317919078e-05,-2.858965317919078e-05,-7.814206647398849e-06,-4.53193e-06,-8.56031e-06,3.0028556069364065e-06,-5.53514242774584e-06,1.9631633333333331,0.9771065555555556,1.557637777777778,-1.9533188888888886,0.7421175555555554,1.8042699999999998,1.6171755555555551,1.354882222222222,1.3817366666666664,-1.1158599999999992,-1.6167244444444437,1.455588888888903,-1.6059777777777922,1.1064666666666667,1.9014,-1.608666666666667,1.23268,1.74832,1.6476066666666664,1.0791544444444447,1.990916666666667,-1.9748066666666668,1.0012768888888888,1.9788344444444443
0.34,-2.50095e-05,-3.8649010404624294e-05,-3.719947572254325e-05,-5.066527398843926e-06,-4.774487803468221e-06,-4.19623e-06,-5.78739919075141e-06,-1.5199551445086693e-05,1.964805185185185,0.9999331111111112,1.5804696296296297,-1.8755829629629628,0.7421172222222222,1.7811407407407407,1.5443625925925926,1.3524914814814815,1.3242951851851852,-0.9900864814814816,-1.4997529629629631,1.809041111111111,-2.0122533333333332,1.1298866666666667,1.8623077777777777,-1.705202962962963,1.2001588888888888,1.8109814814814815,1.590908888888889,1.1297337037037039,2.0050914814814815,-0.552487037037031,1.0260422222222223,1.9925574074074075
0.35000000000000003,-1.767335838150294e-05,-5.289707919075147e-05,-2.6565104046242647e-05,-7.454903236994119e-06,-5.8624304046242656e-06,-5.326225221580086e-06,-9.51825161849706e-06,1.7593413872816137e-07,1.9801703703703704,1.0323062962962966,1.6376125925925928,-1.7871059259259257,0.7847886296296299,1.7821833333333335,1.5846455555555559,1.374724814814815,1.3774059259259264,-1.2561085185185203,-1.741905185185187,1.9707744444444457,-1.998677037037037,1.150328888888889,1.7888955555555552,-1.8238111111111117,1.1482377777777777,1.8661862962962965,1.5492866666666665,1.1841922222222223,2.013592962962963,1.9460055555555553,1.0857225925925929,1.9625648148148145
0.36,-6.434219999999976e-06,-1.611353333333328e-05,-3.9108900000000035e-05,-5.315223333333358e-06,-5.594976666666625e-06,-2.6296400000000238e-06,1.1749430000000539e-06,-6.378273333333423e-06,1.96585,1.0594666666666666,1.7093766666666665,-1.7859166666666666,0.8352173333333331,1.8678266666666665,1.64492,1.4032233333333333,1.4529033333333332,-1.6006099999999994,-0.7049700000000112,-1.862456666666667,-2.0182166666666665,1.1252600000000001,1.72415,-1.89334,1.1319733333333333,1.8543966666666667,1.56301,1.18837,2.0021033333333333,1.8731966666666668,1.0943800000000001,1.9282533333333334
0.37,-1.8967e-05,-3.7342601538461514e-05,-3.3092123076923105e-05,-8.89601e-06,-1.8837834615384657e-06,-2.2569269230769312e-06,-4.140710384615397e-06,-4.717850230769215e-06,1.947947037037037,1.1018414814814814,1.7427974074074073,-1.8605166666666664,0.9160839259259257,1.9758459259259256,1.6753622222222222,1.4190366666666667,1.486024074074074,-1.7474181481481479,1.8540974074074077,-1.7063944444444448,1.2990759259259117,1.066174814814815,1.735784074074074,-1.8769296296296296,1.1173525925925927,1.8523137037037036,1.580912962962963,1.178527037037037,1.9809233333333334,1.8540966666666667,1.008437777777778,1.9762918518518515
0.38,-1.4366810404624271e-05,-2.5556394412331415e-05,-3.4645189595375726e-05,-1.1121394412331416e-05,7.396360404624343e-07,-2.878342601156068e-06,-7.0247673988439326e-06,-1.1380444662813202e-05,1.9288466666666666,1.1548037037037038,1.7198244444444444,-1.968092962962963,1.011721111111111,-2.0289655555555557,1.7011740740740742,1.4305207407407408,1.4961718518518516,-1.704155185185185,1.7762144444444443,-1.7325055555555557,1.959587037037037,0.9677065185185185,1.7917314814814815,-1.812922222222222,1.1263081481481483,1.8687222222222222,1.6071748148148148,1.1425703703703705,1.9943455555555556,0.7970240740740693,0.9474155185185185,1.9721148148148147
0.39,-1.7586756538461533e-05,-1.6096075000000035e-05,-2.6316837692307742e-05,-9.119379615384604e-06,-3.879251730769233e-06,-5.551917307691067e-08,5.128443076923069e-06,-6.80951315384622e-06,1.9206444444444444,1.2116488888888888,1.6561133333333333,-2.005236666666667,1.0952766666666667,-1.9372077777777776,1.6820766666666667,1.3969522222222224,1.4748355555555555,-1.62254,1.6999733333333331,-1.7899477777777777,1.9224355555555557,0.9538308888888889,1.8212777777777778,-1.7438377777777776,1.13198,1.87723,1.6511844444444443,1.10736,2.01419,-1.913481111111111,1.0088866666666667,1.9327244444444442
0.4,-1.4628107514450821e-05,-2.0558179190751483e-05,-3.341362427745675e-05,-9.77892040462426e-06,-1.2570234104046215e-05,-8.647630809248517e-06,1.7105105895952555e-06,-5.176162427745961e-06,1.959732962962963,1.24074,1.673120740740741,-1.9959903703703703,1.1424229629629632,-1.924671851851852,1.6271666666666667,1.3430944444444444,1.4624492592592593,-1.5689803703703704,1.568085185185185,-1.8145637037037037,1.957197777777778,0.9832244444444446,1.83291,-1.6796833333333332,1.1289948148148148,1.8649933333333333,1.7174307407407408,1.0936303703703705,1.9979307407407407,-1.8537988888888888,1.0443948148148148,1.9700266666666668
0.41000000000000003,-1.1643676300578025e-05,-2.569448323699436e-05,-3.0182772832370063e-05,-9.61785572254344e-06,-3.437515491329445e-06,-5.700084682080855e-06,-1.0779231791907462e-05,-6.097873179190673e-06,1.9418292592592592,1.2496955555555556,1.720868888888889,-1.9840496296296295,1.193148888888889,-1.9664496296296297,1.606277777777778,1.289383333333333,1.5072122222222224,-1.5898692592592594,1.4338037037037035,-1.7638377777777776,2.019857037037037,1.0309666666666668,1.8269470370370369,-1.6319425925925926,1.1439133333333333,1.8411192592592591,1.753238148148148,1.08766,1.9710714814814814,-1.83291,1.0503651851851852,1.9640562962962962
0.42,-2.0384686923076933e-05,-2.389075961538462e-05,-4.3752440384615375e-05,-1.1619043461538466e-05,-2.8721617307692326e-06,-4.121343076923068e-06,-1.046217073076922e-05,-1.5085791538461483e-05,1.9564544444444445,1.2738655555555556,1.682071111111111,-1.9636133333333334,1.2232844444444444,-1.1427188888888926,1.6440255555555556,1.2640144444444443,1.5249688888888888,-1.68252,1.399188888888889,-1.7008699999999999,1.143611111111115,1.0661766666666668,1.8168,-1.5867344444444444,1.17987,1.8338055555555557,1.7201222222222223,1.1024344444444445,1.9555588888888888,-1.8817033333333333,1.037978888888889,1.9645066666666666
0.43,-9.281515202312136e-06,-2.980891040462427e-05,-2.3617872447013445e-05,-8.566778208092474e-06,5.533529055876653e-07,-2.1322347976878645e-06,-9.66701892100192e-06,-1.4839952408477804e-05,1.9913662962962964,1.277,1.6502937037037038,-1.904827037037037,1.2298511111111112,1.9551044444444445,1.6738696296296296,1.26088,1.5016914814814815,-1.8248548148148147,1.5369044444444442,-1.6701381481481483,0.8358122222222168,1.0784159259259258,1.8139640740740741,-1.5852425925925926,1.189564074074074,1.8397759259259259,1.6664037037037036,1.1175018518518518,1.9731637037037038,-1.9624229629629628,1.0106792592592593,1.976745925925926
0.44,-6.744957692307689e-06,-2.3107660000000013e-05,-3.5290928461538435e-05,-1.1754618692307662e-05,-8.410540230769215e-06,-2.6546023076923105e-06,3.3402009923077457e-06,6.103265623077059e-06,1.9728633333333334,1.2744625925925925,1.6468637037037037,-1.780547407407407,1.209857037037037,1.852158148148148,1.68789,1.2656562962962963,1.4728974074074075,-1.2529755555555422,1.7656248148148153,-1.669988888888889,2.037167777777778,1.089898888888889,1.8120237037037037,-1.6191096296296297,1.1788274074074074,1.8457462962962963,1.653877037037037,1.1246662962962963,1.9639114814814815,-2.014635925925926,1.013358888888889,2.0022555555555557
0.45,-2.176443333333336e-05,-2.0533599999999976e-05,-3.1052100000000075e-05,-1.0686370000000042e-05,-5.4271233333333455e-06,-4.755730000000012e-06,-6.658023333333429e-06,-1.1581606666666953e-05,1.9833033333333332,1.2890833333333334,1.6489533333333333,-1.6274666666666664,1.1480933333333332,1.81277,1.68789,1.26894,1.4609566666666667,1.8772266666666662,1.9363100000000002,-1.68252,2.0007633333333334,1.1051233333333332,1.7953133333333333,-1.6623800000000002,1.15346,1.8570833333333334,1.6690933333333333,1.12795,1.92691,-2.0531300000000003,1.0178366666666667,2.04642
0.46,-1.5826958381502868e-05,-3.074097919075144e-05,-4.1249873217726484e-05,-8.568717938342814e-06,-1.1798558381502868e-05,-2.7674128323699805e-06,-1.4791124855491395e-05,-2.1157131599229358e-05,2.017173703703704,1.3075866666666667,1.6608840740740742,-1.5658459259259259,1.0808,1.8408248148148147,1.68789,1.2677459259259258,1.45022,1.704151111111111,1.9703292592592594,-1.689681111111111,1.968685925925926,1.1060188888888889,1.7509996296296295,-1.671182962962963,1.1106374074074075,1.8842351851851853,1.6804355555555555,1.1122792592592594,1.9210907407407407,1.4417166666666643,0.9984421111111111,2.045225925925926
0.47000000000000003,-1.2669179190751554e-05,-3.493201387283208e-05,-1.9787815606936334e-05,-9.87788213872846e-06,6.277361156069908e-07,-4.86763e-06,-9.26562843930527e-07,-5.775758265895764e-06,2.047010740740741,1.3365281481481484,1.6855055555555558,-1.5843477777777781,0.9392097037037032,1.9906155555555565,1.6929648148148149,1.248199259259259,1.4527574074074074,1.4617044444444436,1.9066166666666662,-1.69998,1.9643574074074075,1.083039259259259,1.7023644444444443,-1.6702874074074074,1.0987051851851852,1.9166181481481483,1.6914722222222223,1.0815466666666667,1.9518233333333335,-2.0204577777777772,1.0000848148148147,2.048503333333333
0.48,-1.4304068786127187e-05,-2.9356163583814973e-05,-4.089800635838156e-05,-6.397674624277423e-06,-3.1328610404624425e-06,-2.892244797687793e-06,-5.87472e-06,-5.393491965317753e-06,-2.052232222222222,1.3642755555555555,1.7058,-1.6498477777777778,0.8960911111111108,-1.9667466666666669,1.7062477777777778,1.2246311111111112,1.4676733333333332,1.3862144444444442,1.754585555555556,-1.6744666666666668,1.9752522222222222,1.0545444444444445,1.6802866666666667,-1.6668544444444446,1.0952722222222222,1.9591333333333332,1.7223577777777779,1.0630422222222222,1.956,-1.962268888888889,1.0079944444444444,-2.057157777777778
0.49,-1.371380963391137e-05,-3.4940498458574046e-05,-3.148741040462427e-05,-7.783808651252383e-06,-5.557457360308295e-06,7.765016454720876e-07,4.107618516377721e-06,-3.079401849710969e-05,-2.03433,1.3953125925925927,1.734442962962963,-1.66775,1.0727417777777775,-1.944068148148148,1.7480196296296295,1.1733007407407408,1.4951251851851852,1.552122592592592,1.482443333333334,-1.6589437037037038,1.983601851851852,1.0402155555555557,1.686248148148148,-1.6692425925925927,1.0964662962962963,1.967491851851852,1.7450362962962962,1.05946,1.9369037037037038,-1.9574955555555555,1.017538148148148,-2.0559666666666665
0.5,-1.7599620809248564e-05,-5.7786996339113804e-05,-3.5272879190751435e-05,-7.5286408092485655e-06,1.2118087861271514e-06,-4.495061213872849e-06,-3.2137188246628024e-06,-1.2899820809248565e-05,-2.008668148148148,1.4142585185185186,1.7604,-1.666405925925926,1.31668,-1.9724144444444445,1.8015848148148148,1.1255625925925925,1.5279533333333333,1.8412718518518518,1.1397377777777777,-1.651042962962963,1.9606266666666665,1.0229114814814815,1.6916214814814816,-1.6944581481481482,1.116457037037037,1.9407844444444444,1.722955925925926,1.0597585185185185,1.94168,-1.7484699999999989,1.0176880740740741,2.046121481481481
0.51,-1.2998784393063577e-05,-2.6090984393063577e-05,-2.8011768786127156e-05,-1.2943431213872845e-05,2.5358509826589438e-06,-3.898694643545304e-06,-1.0351349036608882e-05,-1.1406629287091431e-06,-2.001208888888889,1.4135122222222223,1.7626388888888889,-1.7402633333333335,1.4166466666666666,0.1387577777777853,1.8060588888888889,1.0711033333333333,1.5585366666666667,-0.09981333333334064,0.8450649999999997,-1.6413411111111111,1.9300433333333333,1.0124688888888889,1.6901288888888888,-1.6713322222222222,1.1216811111111111,1.9318288888888888,1.696841111111111,1.0612511111111111,1.9394411111111112,2.0374688888888888,0.987849,2.04239
0.52,-2.114290520231214e-05,-3.820011676300575e-05,-2.946676628131021e-05,-6.477556994219648e-06,-6.347546011560704e-06,-1.0885620809248562e-05,-2.7040243930635776e-06,-2.3972722157996183e-05,-2.0273240740740737,1.3799396296296298,1.7859129629629629,-1.833216666666666,1.3899407407407411,1.7941251851851858,1.810082962962963,1.0188814814814815,1.6295585185185182,-1.553012222222223,0.700938,-1.6735703703703702,1.9176592592592594,0.9908327777777778,1.704905185185185,-1.6599885185185186,1.1036307407407406,1.9375007407407407,1.6844570370370369,1.05946,1.929441111111111,-2.007623703703704,0.9712875925925926,2.0425392592592595
0.53,-1.7462805769230737e-05,-3.120058269230779e-05,-2.9249363461538455e-05,-8.64746288461537e-06,-6.049025769230739e-06,-6.907639711537552e-07,-1.02388e-05,-5.253359615384578e-06,0.06355888888891403,1.30624037037037,1.843805555555556,-1.989571481481482,1.2305962962962957,1.5753992592592587,1.8763288888888892,1.017388888888889,1.6984822222222222,-1.374874444444444,0.7113820000000002,-1.7368318518518522,1.9298933333333335,0.9890421111111112,1.7407125925925928,-1.6552174074074073,1.0934811111111111,1.9294459259259258,1.7020696296296296,1.05946,1.9297440740740741,-1.9291474074074073,0.9808364074074074,2.050594074074074
0.54,-1.29244e-05,-4.71656e-05,-4.14588e-05,-8.39246e-06,-1.02388e-05,-4.19623e-06,-2.51774e-06,7.21752e-06,1.99002,1.24074,1.9014,2.04239,1.10781,1.5187,1.93362,1.03529,1.71206,-1.36562,0.708995,-1.76443,1.95779,1.01112,1.76443,-1.64761,1.09572,1.92557,1.70803,1.06752,1.94571,-1.92154,0.99501,-2.06253
0.55,-1.244021730769233e-05,-7.575812980769166e-06,-3.835034711538461e-05,-1.0487347115384613e-05,-6.751090673076917e-06,-1.1084505769230776e-05,-1.5932788461538446e-05,-4.140385192307678e-05,1.9558544444444443,1.204783333333333,1.963163703703704,1.9824125925925924,1.0737888888888887,1.6156792592592601,2.023295185185186,1.0612562962962964,1.7178811111111112,-1.4391751851851857,0.6630419999999998,-1.814113703703704,1.981666666666667,1.0548381481481486,1.7665196296296295,-1.6456696296296296,1.1355574074074077,1.8897625925925923,1.70803,1.0992974074074078,1.9439188888888888,-1.9692833333333337,0.9951597037037037,-0.09190814814810566
0.56,-2.7621362427745274e-05,-2.0508373988439468e-05,-1.9911655876686047e-05,-1.09102e-05,-1.2496529865124753e-06,-3.611827398843947e-06,5.389609210019366e-06,-1.3086105202312105e-05,1.957641111111111,1.1576418518518516,2.0479133333333337,1.96988,1.048125925925926,1.6908755555555557,-1.8752900000000166,1.0752814814814815,1.766818888888889,-1.5051181481481484,0.6642354074074075,-1.8445522222222221,1.99002,1.0870633333333335,1.7721914814814814,-1.6552125925925925,1.1519707407407407,1.8578262962962964,1.6925166666666667,1.1234722222222222,1.9415307407407407,-1.9976322222222223,0.9871022222222222,2.0070251851851855
0.5700000000000001,-2.2285737572254247e-05,-5.164418728323726e-05,-3.926154971098301e-05,-9.02666780346822e-06,-3.450447822736053e-06,-3.52483e-06,-7.703921464354683e-06,4.791302928708878e-06,1.9506299999999996,1.0863211111111104,-1.956449999999999,1.9407833333333326,1.0182888888888886,1.520044444444442,-1.9224333333333319,1.0625988888888886,1.8669277777777789,-1.658802222222224,0.700490888888889,-1.8561900000000002,1.98196,1.0585688888888887,1.7939733333333334,-1.6892333333333336,1.14003,1.8244066666666663,1.663724444444444,1.122128888888889,1.9698811111111116,-2.0312011111111117,0.9824774444444445,1.9546599999999996
0.58,-1.5591563776493267e-05,-9.469093603082906e-06,-2.1505124855491412e-05,-7.696490809248569e-06,-6.484672389210053e-06,-2.5423191907514315e-06,4.5438983815031614e-07,-5.686494778419957e-06,1.9379485185185186,1.022163703703704,-1.79008888888889,1.8684222222222227,1.0108222222222223,1.3551796296296303,-1.7985981481481488,1.0215674074074077,1.9579407407407403,-1.8587262962962952,0.6564771851851856,-1.8800566666666667,1.98196,1.002619814814815,1.8417177777777773,-1.6810333333333334,1.1437614814814816,1.778906666666667,1.598820740740741,1.1236214814814816,2.008668148148148,-2.0573066666666664,0.986953,1.94571
0.59,-2.187019036608862e-05,-3.3927521579961806e-05,-4.203058959537574e-05,-7.98852040462426e-06,-5.99276479768787e-06,-4.258971618497041e-06,-1.8204698381504092e-06,-2.2596888053949972e-05,1.963617037037037,0.9714365185185188,-1.5903148148148156,1.8030722222222222,1.1101918518518512,1.1301833333333342,-1.7783070370370369,1.0258925925925924,2.0103151851851853,-0.41611592592595503,0.49713196296296375,-1.8341062962962966,2.004643333333333,0.9262290000000003,1.9324277777777774,-1.6425333333333336,1.1553996296296296,1.7350381481481485,1.5257092592592596,1.1351085185185186,2.0223951851851854,2.046264814814815,0.9390605185185189,1.9472025925925927
0.6,-7.96459358381506e-06,-2.14430023121386e-05,-5.301997514450862e-05,-8.971688034682113e-06,-5.4284191907514825e-06,-3.152266763005793e-06,-1.958886820809267e-06,2.7214830057803064e-06,1.97794,0.9439837777777778,-1.4578288888888893,1.8508144444444443,1.2796822222222217,0.9439842222222227,-1.8105322222222222,1.0796022222222221,2.0258322222222223,1.862458888888889,0.41716100000000006,-1.7505566666666668,2.02851,0.8808725555555557,1.9944988888888888,-1.6091111111111112,1.16017,1.6825255555555556,1.50661,1.1172033333333335,-1.6001588888888736,2.016427777777778,0.8746060000000001,1.9304855555555556
0.61,3.014496531791891e-06,-6.015699595375718e-05,-1.93027e-05,-7.88891e-06,-2.18204e-06,-4.991817745664736e-06,-8.802867803468211e-06,-9.828400346820807e-06,0.5183203703703851,0.9600977777777777,-1.3789014814814817,1.9460048148148146,1.3766614814814815,0.9396581111111106,-1.811878148148148,1.1840440740740739,2.0303,1.8233674074074073,0.5108589259259257,-1.7311614814814815,2.0328374074074076,0.8605817777777778,2.030754074074074,-1.6168725925925926,1.15212,1.6658096296296296,1.5372044444444442,1.0952722222222222,-2.0158355555555554,2.0116525925925925,0.8555088518518519,1.9266085185185184
0.62,-2.9807616763005747e-05,-3.247639942196552e-05,-6.313172485549139e-05,-1.0226514065510602e-05,-1.870919190751437e-06,-5.514441541425828e-06,-8.51535888246624e-07,-2.18204e-06,-1.949137037037037,1.0378311111111111,-1.3569644444444444,1.97391,1.3474174074074075,1.136895925925926,-1.762338888888889,1.2658085185185186,2.040598888888889,1.8448522222222221,0.6399157777777779,-1.7877074074074073,2.0268755555555553,0.8683396296296296,2.034927037037037,-1.61941,1.15212,1.6419366666666666,1.5892725925925926,1.0773696296296296,-1.9843481481481482,1.9936007407407406,0.8786351111111111,1.9078081481481481
0.63,-6.434223333333333e-06,2.34989e-06,-2.4506000000000002e-05,-1.06864e-05,-1.2197033333333334e-05,-7.21752e-06,3.4129333333333334e-06,-1.2253e-05,-1.8047166666666665,1.0742366666666667,-1.3615933333333334,1.9054233333333335,1.25014,1.3186233333333333,-1.7738266666666667,1.32265,-2.05716,0.6270866666666668,0.7277943333333333,-1.8946833333333333,0.686163333333333,0.874159,2.0303,-1.62747,1.1736,1.6046366666666667,1.61135,1.0728933333333333,-1.98599,1.95242,0.87953,1.93094
0.64,-7.838559076923058e-06,-4.010309769230786e-06,-2.7772569230769316e-05,-7.2924028461538544e-06,-6.950251153846155e-06,-6.45613846154538e-09,-8.025772307692311e-06,-1.1158105615384592e-05,-1.622694444444444,1.0763262962962963,-1.363382962962963,1.9107951851851854,1.230442962962963,1.3550307407407407,-1.8678222222222227,1.3545766666666668,-2.052979259259259,-1.8263459259259247,0.7003418148148146,-1.92959,-2.014337407407407,0.8840060370370372,2.0401511111111112,-1.62747,1.2007585185185186,1.5959862962962963,1.6226937037037037,1.07558,-2.0006174074074075,1.9580903703703705,0.8365608888888887,1.9661503703703704
0.65,-2.811747398843935e-05,-3.246863757225444e-05,-4.333650597302501e-05,-7.16771479768787e-06,-3.5413298651254974e-07,-2.28165040462426e-06,-1.3346773988439348e-05,4.90450026974957e-06,-1.5537659259259258,1.0358926666666668,-1.388595925925926,0.7789696296296345,1.2607348148148148,1.2986314814814814,-1.9592866666666666,1.3648766666666667,2.034780740740741,-1.509602962962963,0.6000797407407409,-1.8469392592592593,-1.970327777777778,0.898329,2.041195925925926,-1.6552192592592592,1.20449,1.60732,1.621051851851852,1.065131851851852,-1.9961396296296297,1.9874866666666666,0.8077650000000001,1.9679425925925926
0.66,-2.3125756538461532e-05,-4.425405923076917e-05,-3.493072615384613e-05,-8.22461e-06,-1.268548653846164e-06,-3.003212730769247e-06,-4.233673461538466e-06,-6.33307407692285e-07,-1.5728633333333335,0.9019101111111104,-1.2698322222222214,-1.9049766666666659,1.3110133333333336,1.2228366666666663,-1.98196,1.347271111111111,2.0294066666666666,-1.3924766666666666,0.5424885555555555,-1.7219122222222218,-1.9649544444444444,0.8889295555555555,2.035225555555556,-1.682518888888889,1.185691111111111,1.6104544444444446,1.6091111111111112,1.04693,-1.9568999999999999,2.0226977777777777,0.7998575555555556,1.9318366666666664
0.67,-3.832493468208111e-05,-3.167304797687882e-05,-3.54162e-05,-9.107520404624237e-06,-1.0876229710983481e-06,-5.962040809248473e-06,-1.3360021618498753e-06,-4.297131445086294e-06,-1.6507414814814818,0.939656666666668,-1.0703562962962971,-1.7044529629629628,1.3222055555555554,1.3420488888888893,-1.9807685185185184,1.3932203703703705,1.99405037037037,-1.5950900000000006,0.6651304444444449,-1.635224074074074,-1.9688351851851853,0.8528229999999999,0.9832262962962839,-1.7202666666666666,1.1540603703703705,1.5991207407407406,1.6246314814814815,1.0221651851851852,-1.9113903703703703,1.986592222222222,0.825818,1.9194503703703705
0.68,1.7703714450868112e-05,-3.94446e-05,-1.4240979364160234e-05,-8.038329306358427e-06,-5.414834104046274e-06,-4.301985202312154e-06,7.78316109826588e-06,-3.007598843909115e-08,-1.8327637037037048,1.6916211111111163,1.1318229629629928,-1.6746159259259261,1.2923611111111108,1.6434340740740763,-2.0076277777777785,1.3663685185185177,1.8448503703703696,-1.8367937037037048,0.9128015555555572,-1.6322388888888892,-1.9509314814814813,0.8349192962962962,-2.0216477777777775,-1.7411555555555556,1.1600233333333334,1.5722614814814813,1.6425351851851853,1.0161948148148148,-1.90542,1.9388440740740738,0.8079142962962961,1.9104948148148149
0.6900000000000001,0.00013541954999999884,-4.201847076923067e-05,-3.4072108846154456e-05,-8.746881730769197e-06,-7.70299273076896e-06,-2.5551834615383938e-06,-7.180076538461605e-06,-9.865666538461607e-06,-1.1248133333333041,-1.161065555555526,1.0102248888888865,-1.7348866666666667,1.1950877777777769,1.086767777777749,-2.032543333333333,1.1968788888888882,1.7151944444444442,-1.8942355555555557,1.0836366666666677,-1.7398144444444459,-1.93362,0.8468553333333334,-1.96227,-1.7590566666666667,1.1977711111111111,1.5285433333333331,1.6426844444444444,1.0084353333333334,-1.9027355555555554,1.9537655555555558,0.7564409999999997,1.8843888888888887
0.7000000000000001,-0.00022773655684007915,-3.9886336030828865e-05,-4.0401894797687797e-05,-6.88182e-06,-3.475026281310149e-06,-5.53902e-06,-3.363456724470356e-06,-7.55322e-06,1.9198962962962949,1.869470740740739,0.5860549259259229,-1.738618148148148,0.9045948888888855,-2.012700370370371,0.856550370370422,0.9211570370370339,1.8566359259259286,-1.8945340740740741,1.2871444444444462,0.7912051851852338,-1.939291851851852,0.8443192592592592,-1.9469040740740742,-1.779796666666667,1.225077777777778,1.4697640740740734,1.628213333333333,0.9763607407407403,-1.8649948148148143,2.0103122222222227,0.7024307407407403,1.8162070370370362
0.71,-9.230676153846268e-05,-3.470606538461578e-05,-3.3837089230769246e-05,-8.050308307692374e-06,-3.922505384615437e-06,-6.0735576923077195e-06,-3.6668610000002647e-07,5.164580538460216e-07,1.8502229629629623,1.447085185185187,0.6378267037037018,-1.7462285185185182,0.6379761481481492,1.955111851851853,1.9190025925925926,0.40074935185185384,-1.6631218518518542,-1.707733703703705,1.5707729629629616,1.4347029629629648,-1.9703259259259258,0.7915021111111115,-1.9286981481481484,-1.7797955555555556,1.2279137037037038,1.3756159259259264,1.571668888888889,0.9010150370370374,-1.8273974074074073,2.0155351851851853,0.6605050740740743,1.7617451851851853
0.72,3.27306e-05,-1.86313e-05,-3.513643333333333e-05,-4.755726666666667e-06,-5.594973333333333e-07,4.47598e-07,-3.97243e-06,-8.56031e-06,-0.6270866666666666,0.8580466666666666,1.2769943333333333,-1.7698033333333332,0.483406,1.5657,1.9900233333333335,0.0241703,-1.1937433333333334,-1.3589033333333334,1.6650633333333333,0.9856093333333333,-1.99808,0.6700543333333333,-1.83023,-1.7711466666666666,1.2273166666666668,1.2487966666666666,1.5039266666666666,0.7828486666666666,-1.8235166666666667,1.96451,0.5653163333333333,1.72952
0.73,3.47448e-05,-2.459202350674371e-05,-3.186682080924856e-05,-7.242099190751436e-06,3.139981618497126e-06,-5.015104412331357e-06,-2.8657295953757182e-06,-1.6338597302504856e-05,-1.2678962962962985,0.23334777777777793,1.4605162962962983,-1.6446222222222224,0.7394317407407407,1.2540200000000001,-1.782182592592593,0.095040022222222,-1.4194803703703702,-0.9327903703703724,0.6073908148148153,0.9589042962962959,-1.9771866666666666,0.563674888888889,-1.6767044444444446,-1.7806962962962964,1.2402907407407406,1.1685314814814816,1.4297744444444445,0.619176888888889,-1.77368,1.9645122222222222,0.44759777777777787,1.712810740740741
0.74,7.88891e-06,-2.6315431213872923e-05,-3.37377e-05,-7.006009595375692e-06,-7.62792780346823e-06,-4.805535202312154e-06,-3.039722543352555e-06,-1.541687398843923e-06,1.814565555555558,0.0,-1.2153755555555588,-1.4866181481481486,0.9651703703703698,1.1859855555555554,-1.2368600000000027,0.6403637407407381,0.6242499999999753,1.4120237037037096,0.0,1.7035574074074038,-1.9979318518518512,0.4319319259259268,-1.238500740740744,-1.8224655555555553,1.2786355555555553,1.1061644444444447,1.3614433333333336,0.4917608518518522,-1.6650659259259262,-0.4771399999999737,0.2709460000000007,1.5613696296296304
0.75,-1.2551831213872845e-05,-3.198451445086705e-05,-3.64233e-05,-1.4342878034682112e-05,-1.3782084393063577e-05,-8.372089595375673e-06,-9.941914797687905e-06,-5.53902e-06,1.742048888888889,0.08772922222222511,-1.1436133333333358,-1.441716666666667,0.9010146666666661,1.3700988888888896,-0.9502508888888895,1.1521144444444449,1.7738311111111111,1.2635711111111132,0.026855888888889772,-1.9125833333333326,1.543316666666653,0.300338444444445,-0.7103377777777791,-1.84903,1.3199655555555556,1.0925866666666666,1.3074377777777777,0.45565500000000014,-1.5988222222222221,-1.8539533333333336,0.2582637777777782,1.4063511111111109
0.76,-6.408345684007678e-05,-2.682447919075148e-05,-3.535345838150296e-05,-3.377358921001721e-06,-5.987266820809171e-06,-8.423830809248521e-06,-3.773856011560651e-06,-7.55322e-06,1.6644696296296302,0.9996352962962956,0.35912148148147294,-1.6995270370370363,0.6420045925925931,1.5634559259259257,-1.2558099999999994,1.233284814814815,1.9313837037037032,-0.48982148148147275,0.43983988888888803,-1.5437685185185193,-1.358310000000002,0.7097408148148137,-1.5219822222222201,-1.8275425925925926,1.3509966666666666,1.0484207407407409,1.32534,0.5678529259259256,-1.6501437037037034,-1.9530199999999998,0.43014140740740714,1.3216103703703703
0.77,3.500288150289003e-05,-2.4436416763005726e-05,-3.757976743737959e-05,4.943308400770763e-06,6.529626801541527e-07,-4.806182389210053e-06,-5.041624797687858e-06,-6.863385606936426e-06,1.6479025925925945,1.0557378518518492,1.6137433333333318,-1.7441396296296008,0.4475984444444432,1.5395877777777773,-1.66013666666667,1.0215639999999986,2.014642222222221,-1.989570740740741,0.699893740740742,-1.1724073333333311,-0.8407381481481497,1.0033619259259252,1.9694307407407412,-1.757416296296296,1.3566651851851852,1.020671851851852,1.2853485185185185,0.7154111851851854,-1.8345588888888893,-1.7572685185184862,0.5690458148148153,1.3266811111111116
0.78,-2.5809656262042335e-05,-2.9228712138728452e-05,-3.120086878612716e-05,-3.263522177263963e-06,-2.7609446242774785e-06,-3.4876378034682113e-06,-6.433573179190733e-06,-5.53902e-06,1.8642488888888888,0.6499121111111107,1.4757322222222224,1.4278344444444437,0.2685589999999999,1.579126666666667,0.13696333333334065,0.8029912222222221,1.819931111111111,0.18128111111111833,0.9520402222222226,-1.0612551111111115,-1.3293677777777786,0.8213421111111108,-0.14323222222222887,-1.71117,1.334291111111111,1.0751311111111113,1.3360800000000002,0.7653926666666667,-1.9859922222222226,-0.19067777777778527,0.6749776666666668,1.454247777777778
0.79,-4.211791040462436e-05,-3.1350931213873064e-05,-3.255660520231218e-05,-5.7498884007704375e-06,-6.028365125239865e-07,-7.055814797687822e-06,1.6516842774566042e-05,-3.929093005780445e-06,1.8688700000000011,0.6033615925925949,1.6334296296296305,1.2294025925925953,0.3856801481481531,1.9149703703703722,1.3199622222222178,0.6309639999999995,1.6895311111111115,1.7795037037036556,1.4012766666666718,-1.570774814814771,-1.88736703703699,0.7465937777777782,-1.8887181481481028,-1.6789444444444441,1.3089218518518517,1.2108974074074081,1.4834844444444448,0.8929579259259282,1.7457770370370336,-1.8687240740740725,0.8049303703703715,1.6593981481481508
0.8,-3.468347019230759e-05,-3.664116923076919e-05,-3.734324711538463e-05,-2.187367307692342e-05,-6.54612e-06,-5.451869711538477e-06,-1.4969251923076977e-05,-9.654562884615369e-06,1.9930048148148152,0.9315992222222239,1.6775962962962963,1.6149300000000018,1.0406634814814846,1.9853940740740732,0.9207091111111105,0.5984382962962964,1.7614444444444448,-1.9158696296296283,1.871552222222223,1.6531311111111082,1.7411566666666656,0.7689734074074073,1.5186974074074053,-1.6201518518518514,1.2928114814814813,1.3272796296296303,1.4855748148148145,1.1009437037037042,1.430672592592592,-1.7105729629629625,0.9320480000000004,-0.14412555555557915
0.81,-1.35958e-05,-6.29435e-05,-3.44091e-05,-3.84375e-05,8.72816e-06,-5.53902e-06,1.19173e-05,-5.03548e-06,1.90542,1.34548,1.65969,1.98196,1.62747,1.65566,1.03127,0.636484,1.83291,-1.83291,1.54287,1.36965,1.39382,0.656626,1.07558,-1.51467,1.23268,1.44619,1.31325,1.16823,1.39785,-1.65566,1.01515,-1.8732
0.8200000000000001,-1.1457289423076951e-05,-4.8679503846152435e-05,-3.462696923076937e-05,1.764194038461496e-05,-9.90311e-06,-2.430587115384559e-06,2.5306489423079183e-06,-8.063215769230883e-06,1.6201551851851836,1.6689451851851869,1.6480525925925924,-1.7092262962962923,1.6464148148148132,1.6746129629629658,1.709825185185191,0.8229832222222238,1.944516296296297,-0.12652296296292254,0.8044826666666629,0.061318518518481024,0.9568139259259236,0.4729617037037028,0.9213054074074081,-1.4329107407407402,0.8353691481481439,1.6322425925925945,1.4132155555555581,1.0215651111111097,1.3938192592592582,-1.8678288888888919,1.1624096296296307,-1.4910951851851826
0.8300000000000001,-6.938093410404478e-06,-2.7353305202312107e-05,-2.5308331213872635e-05,-6.125363795760185e-06,-5.078488400770941e-06,-5.278032986512475e-06,-3.848240404624213e-06,-1.5229295953757876e-06,1.5583833333333335,1.7405585185185184,1.592851111111111,-1.3398055555555548,1.439023703703703,2.0496974074074084,-1.407842962962978,1.0187339629629635,1.9856918518518518,1.765323703703703,0.5851594074074074,-1.7084859259259255,0.8884816296296298,0.39597459259259243,1.2379083703703715,-1.3633803703703702,0.05803849629629387,1.8444048148148153,-1.8784170370370523,0.8034387407407401,1.0697548148148137,1.4536466666666819,1.2784933333333335,-1.1521166666666658
0.84,-9.978456840077093e-06,-2.1783218882466285e-05,-3.653292504816949e-05,-2.3515990751445044e-05,-1.296256242774569e-05,-8.07584342967246e-06,-9.418641213872845e-06,-4.6435065895953665e-06,1.762193333333333,1.4940844444444448,1.5746522222222221,-1.1297344444444446,1.0572240000000006,-1.5701755555555559,-1.0952700000000002,1.1082533333333333,1.9389977777777778,1.8221744444444443,0.8526741111111109,-1.8185922222222222,1.198667777777777,0.3934386666666666,1.5092999999999996,-1.4188844444444442,0.0,0.4068688888888954,-1.3414500000000003,0.6454362222222223,0.9198138888888888,1.0182846666666667,1.2541722222222222,-1.123022222222222
0.85,-1.2253e-05,-2.8515963776493265e-05,-3.128334026974958e-05,-1.4144304046242843e-05,-5.700725202312142e-06,-6.844951213872853e-06,1.7761277842003868e-05,-6.898311368015312e-07,-1.6962511111110812,1.1307862962962987,1.5940466666666666,-1.1961344444444437,0.7304799259259274,-1.679836666666665,-1.0281348148148148,1.1873274074074067,1.8658848148148153,1.8863262962962961,1.1428631851851834,-1.8484329629629628,1.9215362962962919,0.5001160740740733,1.5659944444444447,-1.6337325925925916,0.0,-1.3089218518518544,-1.4779703703703682,0.7334636296296289,1.0324570370370363,1.3375705925925896,1.1422666666666672,-1.31176111111111
0.86,-1.2942799229287116e-05,-1.6668845664739644e-05,-3.266785838150296e-05,-2.964655838150296e-05,8.208105298650995e-07,-5.6127605394991395e-06,-1.130864161849704e-05,-4.7680195953757395e-06,-1.329815185185184,0.7049668518518514,1.5665944444444444,-1.7245962962962975,0.6622960370370371,1.9355651851851845,-1.2680418518518524,1.205682222222222,1.761001111111111,1.7507044444444442,1.2508877777777776,-1.8451451851851852,-1.736381481481481,0.6451380000000002,1.480057777777778,-1.5997159259259257,0.3054111111111119,-1.4281351851851858,-0.18396185185184266,0.8441700370370373,1.1124307407407408,0.21484481481480544,1.1128807407407408,-1.3217559259259257
0.87,2.870898612716729e-06,-3.366590289017349e-05,-3.0754261271676315e-05,-2.9201919075144393e-05,-3.0028556069364222e-06,-4.6667887861272923e-07,-1.8819524855491378e-05,-1.2551831213872845e-05,-0.8213420000000009,0.5581550000000001,1.4913944444444445,1.1901622222222086,0.7327176666666664,1.78278,-1.5294433333333326,1.075575555555556,1.794423333333333,1.6337355555555557,1.1172077777777782,-1.8606622222222222,-1.905868888888888,0.7430126666666664,1.5827066666666663,-1.5782344444444443,0.6109711111111107,-1.5844966666666664,2.000316666666667,0.9229472222222221,1.3141433333333328,-1.9300411111111118,1.2000066666666664,-1.2286566666666667
0.88,-2.8995219075144533e-05,-3.1636179190751437e-05,-3.356398786127169e-05,-1.452916242774569e-05,-3.4627370520231236e-06,-4.320419595375719e-06,1.3011720809248563e-05,-8.019893063583828e-06,-0.9899393333333348,0.8277575555555572,1.5576455555555562,1.3814340740740745,1.0396221111111128,1.8667855555555553,-1.6553640740740745,0.9935181481481481,1.8424625925925926,1.7609974074074086,0.9885949259259258,-1.8569370370370373,1.7572714814814803,0.7579329999999999,1.674908148148148,-1.7050500000000006,0.8323828518518526,-1.7202681481481488,-1.9137807407407397,1.0297738518518527,1.5031807407407405,-1.8156070370370365,1.3414514814814822,-1.1016851851851845
0.89,-5.0899049710982755e-05,-3.0069579190751437e-05,-3.450741676300575e-05,-3.3611928709055293e-06,-7.815173159922955e-06,-3.426513969171517e-06,-6.562613198458512e-06,-7.454903236994252e-06,-1.265805925925926,1.1189945185185186,1.7131037037037038,1.4837877777777777,1.286847037037037,1.8250077777777778,-1.7714411111111112,1.0184354814814816,1.8552903703703705,-1.4227674074074097,1.0051525925925926,-1.9184085185185185,1.7041537037037036,0.7486822592592592,1.5670425925925924,-1.8096385185185184,0.9669610000000001,-1.8130714814814815,-1.7120625925925925,1.2055322222222224,1.3086296296296294,-1.7484677777777777,1.4682733333333333,-1.0158948148148148
0.9,-1.3092233333333333e-05,-3.68709e-05,-3.3849633333333335e-05,-1.2029203333333333e-05,-3.1891366666666665e-06,-5.315223333333334e-06,-1.622542e-06,-8.11271e-06,-1.6596966666666666,1.2179133333333334,1.84634,1.7254866666666666,1.35085,1.7805433333333334,-1.8396266666666667,1.0661766666666668,1.8960233333333334,-1.8852833333333334,1.07692,-1.9416766666666665,0.5639733333333334,0.848646,1.4851266666666667,-1.8624533333333333,1.14809,-1.9671933333333333,-1.6704333333333334,1.3763666666666667,1.15749,-1.68655,1.7281733333333333,-1.0782666666666667
0.91,7.217515153844433e-07,-3.3812586923076845e-05,-2.740846384615403e-05,-2.699787692307719e-05,-8.118739461538515e-06,-5.066467692307719e-06,1.038080138461565e-06,-7.367289769230611e-06,-2.006136666666668,1.1991148148148145,1.824259259259259,-1.3253407407407598,1.1834514814814807,1.9163151851851858,-1.8008355555555553,1.0960203703703704,1.9586892592592595,1.3156425925926118,1.0712496296296297,-1.9971781481481485,-1.9580911111111108,0.9101159999999999,1.5415303703703707,-1.8535059259259257,1.3498077777777784,1.1943385185185376,-1.7166888888888892,1.439922962962963,1.3791974074074085,-1.6546233333333333,2.009565925925927,-1.293708148148149
0.92,-1.119609479768787e-05,-3.460832080924852e-05,-3.607466358381509e-05,1.6259393256261697e-05,-3.3634567244701048e-06,-2.0824295953757396e-06,3.890932061657114e-06,-9.28151520231213e-06,1.9834514814814812,1.1527129629629629,1.780695185185185,-1.9452622222222222,1.0088864444444443,2.0332911111111107,-1.7046029629629629,1.1013918518518517,0.8276070370370225,1.9188511111111104,1.06349,-0.8240248148147999,-1.916461111111111,0.9377174814814816,1.61941,-1.7583122222222218,1.44619,1.7800940740740736,-1.741454074074074,1.415754074074074,1.560925555555556,-1.6972944444444447,-1.940783333333333,-1.4475344444444447
0.93,-1.6971516153846156e-05,-2.4041824615384676e-05,-3.329096076923079e-05,-1.8482745000000559e-06,-1.659768269230767e-06,-1.1675203076923087e-05,-1.669069576923074e-05,-4.718501730769233e-06,1.942127777777778,1.097061111111111,1.7492155555555555,-1.972568888888889,0.9592019999999998,1.8955777777777765,-1.68028,1.0863166666666666,-2.000762222222222,1.7666722222222218,1.0760277777777778,2.012852222222222,-1.8790188888888888,0.9703920000000001,1.5786777777777772,-1.623888888888888,1.3897933333333328,1.6556633333333326,-1.7098266666666664,1.3566699999999996,1.6861033333333337,-1.8423144444444455,-1.8311222222222217,-1.5580911111111118
0.9400000000000001,-1.7661068786127292e-05,-1.4207045664739308e-05,-4.055260404624236e-05,7.401856531792524e-06,4.6667906358369176e-07,-4.19623e-06,5.750530404624237e-06,-8.038329306358319e-06,0.9648696296296004,1.0752766666666664,1.7981474074074077,-1.9230277777777776,0.9741225925925928,1.8017322222222223,-1.7690592592592598,1.0472307407407406,-1.9607751851851851,1.760852592592593,1.067224074074074,1.945414074074074,-1.8251562962962957,0.9966518518518523,1.4879677777777776,-1.5442111111111105,1.276697037037036,1.5897225925925922,-1.568834074074073,1.331302962962963,1.625676666666666,-0.9741211111110817,-1.752942222222222,-1.712362962962964
0.9500000000000001,-2.009828959537569e-05,-2.997126242774585e-05,-2.1303279768785882e-05,9.5615974797702e-06,-1.0586130578034513e-05,-4.444609190751384e-06,-1.8327568439303902e-06,-9.001765202312154e-06,-1.9355599999999986,1.0245507407407402,1.8757325925925934,-1.8603685185185181,1.0099285185185187,1.8076951851851852,-1.8406740740740744,1.0561788888888892,-1.9727159259259262,1.8414155555555565,1.0194759259259256,1.927502962962963,-1.8669340740740759,1.0324614814814812,1.598375185185188,-1.4487222222222214,1.052897037037035,1.5389892592592591,-1.383826666666665,1.307436296296296,1.5063137037037027,1.9442122222222213,-1.6962459259259255,-1.936162962962965
0.96,-9.511894846153859e-06,-2.1578993076923106e-05,-3.351691269230778e-05,-4.2016578461538414e-05,-2.5551834615384654e-06,-1.287270384615397e-06,1.6952772307691765e-06,-5.259494076923083e-06,-1.8552911111111112,1.0142599999999997,1.92915,-1.7836788888888893,1.0934788888888887,1.8056077777777781,-1.8324644444444447,1.1172011111111109,-2.011951111111111,1.9412277777777773,0.9945637777777777,1.97749,-1.9112433333333336,1.0223144444444445,1.8015800000000004,-1.3835233333333337,0.8347698888888898,1.566595555555555,-1.3092255555555552,1.2859455555555555,1.4703577777777774,1.1082488888889248,-1.6928133333333328,2.0052388888888895
0.97,-1.0089385876685959e-05,-2.663819479768787e-05,-2.4511462813102203e-05,3.53941932562617e-05,-1.3243556069363903e-06,-3.2260002697495697e-06,-1.870600038535644e-05,-7.932248477842024e-06,-1.883047037037037,1.0620003703703702,1.9501877777777779,-1.7665225925925925,1.1392866666666666,1.7720392592592593,-1.7799470370370372,1.1530085185185184,-2.0097122222222223,2.007476296296296,1.0241085185185184,1.9956918518518518,-1.8694655555555557,1.0815492592592588,1.6829696296296301,-1.3530892592592594,0.7306287407407409,1.669689259259259,-1.362936296296296,1.3004237037037036,1.5212403703703703,-1.8703622222222227,-1.755331111111111,1.9937544444444444
0.98,-1.2047686153846149e-05,-4.065053769230769e-05,-3.560212615384614e-05,-3.2123757692307764e-05,-7.005770769230758e-06,-2.2569269230769312e-06,7.067740230769215e-06,-3.18914e-06,-1.2664025925926121,1.076624814814815,1.96988,-1.8390340740740736,1.1639014814814814,1.7538407407407408,-1.6950562962962965,1.1465974074074075,-1.9757011111111111,2.0104603703703705,1.0551396296296296,1.99405,-1.7806955555555553,1.153312222222222,1.5783837037037036,-1.3815851851851848,0.7559928888888887,1.8112799999999996,-1.4629014814814811,1.3441348148148147,1.5916559259259258,-1.6371655555555558,-1.9234792592592587,-1.9328803703703714
0.99,-1.8127733333333333e-05,-3.334606666666667e-05,-2.56809e-05,-2.1316866666666666e-05,-5.594976666666666e-07,-3.97243e-06,1.0630439999999998e-06,-8.56031e-06,1.9739033333333333,1.0581233333333333,1.95914,-1.9416799999999999,1.1776333333333333,1.7711466666666666,-1.6395466666666667,1.1454033333333333,-1.97659,1.9806233333333334,1.0688633333333333,1.9913633333333334,-1.8436533333333334,1.1816566666666666,1.61538,-1.48244,0.8097046666666666,1.96048,-1.5455533333333333,1.3978466666666667,1.6328366666666667,-1.6502966666666667,0.6176866666666667,-1.63687
1.0,-2.3356773512476034e-05,-3.11294205374281e-05,-3.65006205374281e-05,-1.4499805950095866e-05,-1.5879605374281012e-06,-3.7832102303262175e-06,1.8991787715924645e-06,-3.4214137811900842e-06,1.8945340740740741,1.0288818518518517,1.8958718518518516,-1.9865870370370369,1.126608148148148,1.8111281481481483,-1.615977037037037,1.1716629629629631,-2.011354074074074,1.938247037037037,1.0524548148148147,1.994647037037037,-1.8439537037037037,1.2161207407407408,1.6629751851851853,-1.627611851851852,0.8420806296296296,-2.021798148148148,-1.5889711111111111,1.454397777777778,1.6538703703703703,-1.8670814814814818,1.8060577777777775,-1.4700644444444444
1.01,-1.8695857692307676e-05,-3.471251153846155e-05,-2.6274830769230704e-05,-3.0729311538461624e-05,-3.6862242307691893e-06,-6.1458623076923246e-06,-1.976751538461535e-05,-1.4460823076923242e-06,1.972415925925927,1.0176874074074074,1.782634814814814,-1.99002,1.0881077777777777,1.832465925925926,-1.6295533333333336,1.1504744444444444,-2.01822,1.9543607407407408,1.0327588888888888,2.0082233333333335,-1.9016959259259265,1.23671,1.6253766666666665,-1.7671140740740745,0.8838569259259262,-1.9269096296296293,-1.6018074074074073,1.486025925925926,1.6283618518518517,0.5271192592592984,1.7569707407407409,-1.427094814814815
1.02,-1.1620334615384594e-05,-2.8608619230769235e-05,-2.288555192307689e-05,1.8841089038460895e-05,-6.061937307692297e-06,1.17494e-06,2.3815182692307705e-05,-8.185875384615407e-06,-1.8969222222222215,1.0276877777777778,1.6587966666666665,-1.998527777777778,1.06573,1.8727511111111113,-1.6547733333333334,1.1266066666666665,-2.02583,1.9864377777777777,1.0437977777777778,2.0428377777777778,-1.967638888888889,1.2420833333333334,1.6229922222222222,-1.8687188888888893,0.9757637777777782,-1.8427622222222222,-1.5988222222222221,1.478412222222222,1.5885244444444444,1.9282488888888887,1.8463411111111112,-1.4976622222222225
1.03,-1.1775273076922967e-05,-3.17235e-05,-2.310183461538398e-05,3.7336776923076786e-05,-3.52483e-06,-2.950276538461483e-06,-2.704957307692583e-06,-8.821768653846292e-06,-1.5973311111111115,1.0336522222222222,1.6289566666666666,-1.9973337037037038,1.049021851851852,1.9252696296296297,-1.6965451851851852,1.1063133333333335,0.3709107407407304,1.9876318518518519,1.044991851851852,2.0535785185185182,-2.0332892592592593,1.267152962962963,1.6122455555555557,-1.9677885185185184,1.1774825925925922,-1.8439533333333333,-1.597628148148148,1.4366433333333335,1.56704,1.868568888888889,1.8749870370370372,-1.5621185185185185
1.04,-1.329883461538445e-05,-3.23755346153847e-05,-3.8618261538460765e-05,-5.092285769230742e-05,-2.4273588461535152e-06,1.652667307692418e-06,-1.3492507692308133e-05,-4.209141538461484e-06,-1.4722981481481476,1.0396185185185185,1.6899788888888887,-1.9691351851851857,1.0424551851851853,1.9930037037037034,-1.7611448148148143,1.0694611111111112,2.0173244444444443,1.9767459259259261,1.0315677777777776,-2.039406296296297,1.7553274074074323,1.3484637037037035,1.5806218518518516,-1.760698518518543,1.4105333333333325,-1.9346633333333327,-1.6094088888888889,1.397252962962963,1.5898659259259258,1.859027407407407,1.7971092592592595,-1.5485396296296292
1.05,-8.934744615384649e-06,-2.6184461538461968e-05,-3.46673307692307e-05,-1.4861130769230702e-05,-7.992204615384417e-06,-7.708156153846286e-06,-8.22461e-06,-5.22914538461512e-06,-1.6386555555555584,1.0478277777777778,1.711612222222222,-1.8982611111111107,1.0200755555555552,2.0392555555555556,-1.8499244444444454,1.0276833333333328,1.9971799999999997,1.9439144444444438,1.037528888888889,-1.984204444444444,-2.0253799999999997,1.3991877777777781,1.6015088888888889,1.908108888888887,1.5321277777777782,-2.0226966666666675,-1.6579033333333342,1.385312222222222,1.6413400000000005,1.9716700000000011,1.7389222222222218,-1.6731211111111128
1.06,-1.2446623076922955e-05,-2.29953e-05,-3.061956346153813e-05,4.970904615386495e-06,-2.666222692307783e-06,1.0522856730767108e-06,-7.369250192308163e-06,-8.037397884615476e-06,-1.900502962962964,1.0679677777777778,1.69998,-1.9307837037037041,1.00307,2.0138914814814814,-1.8882655555555552,1.0112692592592594,1.965104074074074,1.8922955555555552,1.0558874074074074,-1.9454114814814814,-1.9903185185185186,1.4053129629629628,1.5977777777777773,1.8344022222222227,1.4558844444444423,-2.054619259259259,-1.7216118518518524,1.3650233333333333,1.6805859259259261,-1.8955792592592096,1.6531237037037028,-1.8103892592592121
1.07,-1.8624717647058925e-05,-2.90379e-05,-2.9952847058823657e-05,-1.2615029411764294e-05,-8.56031e-06,-9.52133352941183e-06,-5.377760000000554e-06,-7.63878803921566e-06,0.09429703703706194,1.1004959259259262,1.6916214814814814,-1.9659992592592592,1.007244074074074,2.0103092592592593,-1.833955185185185,1.0235085185185187,1.9373514814814814,1.86514,1.0716992592592594,-1.9418292592592594,-2.0231451851851854,1.3814366666666666,1.5485370370370368,1.9316837037037042,1.1700177777777765,-2.0564103703703704,-1.7812911111111114,1.3411514814814813,1.7041540740740742,1.9740599999999993,1.564204444444444,1.7880048148148133
1.08,-2.50095e-05,-3.44091e-05,-2.87022e-05,1.49386e-05,3.35698e-07,-1.02388e-05,-1.0071e-05,-7.21752e-06,1.98599,1.16823,1.66775,-1.97794,1.03529,2.01419,-1.78054,1.04738,1.92557,1.8732,1.07155,-1.95377,2.04239,1.36562,1.56301,-1.97794,0.837903,2.05447,-1.85708,1.3052,1.69192,1.93362,1.49453,1.51467
1.09,-1.5359870588235416e-05,-3.3652129411764585e-05,-2.7925519607844644e-05,3.858889411764585e-05,-1.3395003529409357e-06,-4.6175005882354144e-06,1.4530494117647902e-05,-5.9142141176468786e-06,0.048941851851812324,1.2162714814814817,1.6416396296296296,-2.0082196296296297,1.0254488888888886,2.0243396296296297,-1.74429,1.079455925925926,1.947197777777778,1.9246748148148154,1.055584074074074,-1.9756962962962965,2.017767407407408,1.3836703703703703,1.5910607407407409,-1.8449992592592581,0.7556949999999998,1.9187077777777761,-1.9289981481481486,1.2573025925925922,1.6580529629629628,0.1101085185184798,1.2432755555555532,1.7996429629629667
1.1,-1.5261388461538373e-05,-3.314702115384613e-05,-3.601979038461549e-05,-4.428638076922371e-06,-1.38798471153877e-06,-8.363413846154221e-06,-4.6093996153839976e-06,-6.613905576922967e-06,-1.984645555555554,1.2013551851851847,1.643430740740741,-2.002258888888889,1.046335555555556,2.0028559259259255,-1.775326296296297,1.0797588888888887,1.9812140740740745,2.0001703703703715,1.0552907407407408,-1.974208148148148,-1.891549629629714,1.3974022222222224,1.63790888888889,-1.749811851851851,0.8616260370370395,1.642681851851848,-1.972865555555556,1.1710648148148133,1.6282159259259255,-1.7832337037037,0.8171642962962898,-1.4621540740741488
1.11,-9.412471538461693e-06,-3.040652307692339e-05,-2.4596330769230846e-05,3.195590769230445e-05,-6.559031538461192e-06,8.65065615384924e-07,1.5106476923071907e-06,-5.900545384615694e-06,-1.909454444444444,1.134665555555555,1.6878911111111117,-1.9743577777777777,1.068415555555556,1.9873377777777774,-1.8082922222222224,1.0679677777777776,1.9904677777777777,2.0495500000000004,1.069758888888889,-1.9757011111111111,-1.9788344444444437,1.4117211111111112,1.7451877777777791,-1.8253044444444453,1.206724444444448,1.4094844444444423,-1.9367533333333324,1.002617999999998,1.6167233333333335,-1.3987444444444403,0.4507313333333308,-1.16868111111111
1.12,-2.0580942307691894e-05,-3.305338846153838e-05,-3.4977207692307025e-05,-1.7959900384613237e-05,-1.0006440769230357e-06,-1.442213884615269e-05,-2.9179973076927213e-06,-5.1710511538459476e-06,-1.8930414814814815,1.0667729629629625,1.7416040740740744,-1.977342962962963,1.07961,1.9627155555555553,-1.805307037037037,1.0523048148148146,1.98599,2.047314814814815,1.0488718518518516,-1.97794,-1.9310825925925923,1.4027748148148147,1.8637988888888894,-1.8238137037037032,1.5282485185185202,1.2513344444444436,-1.856938518518518,0.7885187407407395,1.6831159259259263,-1.1965777777777773,0.34330725925925915,-1.2544662962962976
1.1300000000000001,-1.848927307692317e-05,-2.9635094230769113e-05,-4.8301815384614636e-05,-3.272414423077134e-05,-8.273028269230793e-06,-3.7249630769234986e-06,-4.244648269230792e-06,-4.6287665384615855e-06,-1.9070618518518518,1.04738,1.76846,-1.9850985185185184,1.0545385185185183,1.9794266666666664,-1.7836785185185184,1.04335,2.0022551851851857,2.003447407407407,1.0020212962962958,-1.9925574074074077,-1.9076629629629627,1.392178148148148,1.9565977777777785,-1.5506262962962922,1.5827044444444436,1.3793451851851888,-1.7793540740740732,0.6630419629629629,1.7353385185185184,-1.4253033333333351,0.4337225555555561,-1.4587196296296305
1.1400000000000001,-1.2346580769230796e-05,-2.847624807692292e-05,-3.623608269230764e-05,-2.4693223269222653e-06,-8.079359615384903e-06,-1.873459230769168e-05,-6.37827e-06,-6.95606134615382e-06,-1.9022944444444443,1.0509622222222224,1.757713333333333,-1.9492911111111102,1.04738,1.9627155555555553,-1.7693555555555553,1.04335,2.021354444444445,1.9676399999999996,0.9686023333333329,-2.0200122222222228,-1.9005044444444448,1.3647233333333326,2.029406666666668,-1.1221255555555465,1.4287311111111074,1.7971022222222317,-1.6910222222222202,0.7859821111111153,1.717433333333333,-1.684307777777784,0.5268230000000024,-1.5625655555555578
1.1500000000000001,-1.285984230769244e-05,-3.226578461538488e-05,-3.864408461538488e-05,-2.342140000000119e-05,-3.111668846153317e-06,-1.0329182692308883e-05,-6.8947315384622e-06,-5.20333e-06,-1.8527588888888877,1.0373833333333329,1.723702222222222,-1.8858807407407403,1.018732222222222,1.9286981481481478,-1.7308603703703695,1.056928888888889,2.044326666666667,1.96585,0.9612911481481481,-2.04178925925926,-1.9049759259259258,1.2396999999999976,-2.0030003703703687,-0.8074669999999986,1.2977370370370365,2.01419,-1.65969,0.965021074074078,1.742053703703705,-0.5157796296295407,0.8025432592592648,-1.7433948148148193
1.16,-1.6591276923077034e-05,-3.115543846153874e-05,-4.3679576923076044e-05,-3.302756153846027e-05,-1.4848169230770335e-06,1.2072239230770003e-05,1.67849e-07,-8.250433076922967e-06,-1.7871059259259265,1.0032169259259263,1.7469781481481477,-1.886923333333333,1.0042625925925925,1.8894577777777783,-1.6908737037037038,1.0697588888888887,-1.4423137037036389,1.9555596296296298,0.9656183703703702,1.449171111111046,-1.8905040740740742,1.1419688888888895,-1.9051285185185194,-0.8003048888888883,1.305639259259259,1.90437777777778,-1.7626362962962945,1.1367507407407396,1.8548470370370356,1.7263870370370404,1.071399037037035,1.4394744444443834
1.17,-1.895408846153838e-05,-3.10521e-05,-3.9573715384615494e-05,-4.4544499999962834e-07,-1.2311051923076937e-05,-3.2782246153845766e-05,-1.1820463461538558e-05,-1.6203880769230632e-06,-1.7617433333333332,0.978897,1.824853333333332,-1.9295966666666664,1.0178399999999994,1.8463400000000008,-1.648946666666667,1.098403333333333,-2.006133333333334,1.9175133333333338,0.9909816666666664,2.026276666666668,-1.798003333333335,1.0634933333333338,-1.7899433333333346,-1.050063333333329,1.4354433333333316,1.513330000000007,-0.692883333333419,1.1279433333333337,1.9107933333333336,1.7228066666666635,0.8956436666666729,1.8799099999999989
1.18,-1.883788461538465e-05,-2.8766757692307674e-05,-3.220443461538469e-05,-2.4825540384615284e-05,-1.67849e-07,-5.477696153846191e-06,1.7172246153846483e-06,-9.431838846153838e-06,-1.7906914814814814,0.9821790740740741,1.8979607407407406,-1.977038148148148,1.059014074074074,1.7985985185185185,-1.625677037037037,1.1249648148148148,-1.9589903703703704,1.8948325925925926,1.0023235185185184,1.9677885185185184,-1.6458196296296297,1.04738,-1.7162374074074074,-1.397699259259259,1.437238888888889,1.058273703703704,1.7551811111111115,1.131524074074074,1.8529051851851852,1.9842037037037035,0.4719177407407411,-1.2532766666666624
1.19,-1.0755253846154001e-05,-3.0948807692307604e-05,-3.3931330769230796e-05,-1.8243953846153803e-05,-4.738513076923253e-06,-7.656505384614899e-06,-6.249154615384505e-06,-7.075493076923099e-06,-1.8773733333333333,0.986953,1.9407814814814814,-2.0001625925925928,1.076774074074074,1.7451885185185185,-1.6379081481481481,1.1383881481481481,-1.9272048148148149,1.9045314814814815,0.99501,1.9388440740740742,-1.6185114814814816,1.1248137037037036,-1.6871466666666668,-0.7731511111111156,1.1876285185185187,0.8669974814814814,1.5260085185185186,1.1931462962962962,1.79263,-1.916317777777778,0.2787042222222222,-1.6643177777777778
1.2,-1.3034103846153904e-05,-3.7159257692307964e-05,-3.194299615384627e-05,1.214970769230746e-05,-5.338899999999865e-06,6.9915680769231345e-06,-2.1045707692308464e-06,-9.012213846153731e-06,-1.9694288888888885,0.986953,1.9640588888888888,-1.9703255555555557,1.07961,1.7219111111111112,-1.6467144444444444,1.14406,-1.9246744444444444,1.962272222222222,0.9856105555555557,1.9510833333333333,-1.6856555555555552,1.2313411111111106,-1.6444733333333337,1.5155666666666692,1.174945555555555,1.0831895555555542,1.375464444444445,1.1637577777777781,1.8302277777777773,-1.8087455555555558,0.36210644444444373,-1.557191111111111
1.21,-1.1429871153846121e-05,-2.8398778846153778e-05,-3.341817115384612e-05,-1.990954230769244e-05,-3.1600853846153296e-06,-8.757210961538517e-06,-2.2885601923077034e-06,-6.255610384615407e-06,-2.007331481481481,0.9859087037037038,1.9524218518518524,-1.9401925925925934,1.0815429629629632,1.7048981481481482,-1.6720759259259257,1.1348085185185188,-1.960036296296296,0.9805370370370916,0.9563680000000006,1.9639096296296294,-1.8172496296296277,1.269688888888889,-1.5251159259259268,1.5956888888888838,1.356967777777777,1.1879274074074082,1.3435396296296296,1.108402222222223,1.8837922222222214,-0.9053422222222749,0.47669170370370323,-1.7281770370370355
1.22,-2.5984321153845946e-05,-2.9218661538461262e-05,-3.3098578846154054e-05,-2.4886890384617107e-06,-2.788875961538048e-06,-4.260784038461952e-06,-9.32853730769472e-07,-3.983189615384685e-06,-2.0252351851851853,0.9739731481481482,1.9016959259259258,-1.880511111111111,1.0636392592592592,1.7048981481481482,-1.7257870370370372,1.0900529629629627,-1.9689844444444444,-2.0153814814814814,0.9086235555555554,1.9728651851851853,1.0205207407407602,1.1921037037037034,-1.4206788888888886,-0.8422296296296474,1.3778566666666665,1.1043718518518515,1.4062062962962967,1.0934837037037037,1.9554070370370373,1.9264651851851848,0.5124998518518519,-1.8176955555555556
1.23,-1.2330469230769187e-05,-3.385390384615378e-05,-3.567443076923081e-05,-5.9973807692308906e-06,-7.617771153846595e-07,-8.74107269230778e-06,-2.5642165384615406e-05,4.2607911538465945e-07,-2.015085555555556,0.9453268888888887,1.8615599999999999,-1.8418677777777774,1.04738,1.726388888888889,-1.7818911111111113,1.0182873333333329,-1.9304877777777776,-2.0012144444444444,0.858493111111111,1.98196,1.9009444444444443,1.0684151111111104,-1.366066666666666,-1.533471111111109,1.3991888888888895,1.0608055555555556,1.5947888888888901,1.1874777777777783,2.0128522222222225,1.738025555555555,0.5339844444444447,-1.7689044444444442
1.24,-1.5145184615384791e-05,-3.12845076923076e-05,-3.5906838461538594e-05,-4.170405384615936e-06,-9.489939230769451e-06,-1.0393738461538592e-05,1.274363999999956e-05,-5.745604615384792e-06,-2.0323925925925925,0.912354,1.8546948148148148,-1.8139640740740741,1.053051851851852,1.72012,-1.8091907407407408,0.9841184814814815,-1.90542,-2.0094166666666666,0.8487952222222223,1.98196,1.8059092592592592,0.9387619629629629,-1.2716237037037037,-1.2605825925925924,1.4773711111111112,1.0712544444444445,1.8335077777777782,1.283264814814815,-0.8041803703703758,1.696397777777778,0.5842642962962963,-1.685655185185185
1.25,-1.1045771153846161e-05,-3.091652884615384e-05,-3.5280628846153834e-05,-9.354367692307619e-06,-5.267881730769215e-06,3.253691730769214e-06,-4.6707290384615674e-06,-1.46029e-05,2.056262962962963,0.8880340370370371,1.890502222222222,-1.7991974074074073,1.0752796296296296,1.7216125925925927,-1.791437777777778,1.0108296296296295,-1.9039292592592592,-1.2925166666666867,0.8643119629629629,1.960627777777778,1.7220585185185182,0.8638640370370372,-1.302808148148148,-1.3932244444444433,1.4326148148148155,1.1316796296296296,1.258941481481501,1.342642222222222,-1.9562992592592592,1.7999362962962957,0.6299198518518518,-1.6023981481481484
1.26,-1.3828207692307748e-05,-2.9154103846153874e-05,-3.262085192307694e-05,-1.7833978846153756e-05,2.1884957692308102e-06,2.840528269231044e-07,-5.6519959615384685e-06,-1.123944423076919e-05,-0.6901933333332884,0.8755016666666667,1.9215399999999998,-1.8006833333333332,1.0943766666666666,1.736233333333333,-1.7604000000000002,1.0326066666666667,-1.8919966666666668,2.0289633333333335,0.8795303333333333,1.9134833333333336,1.7751733333333328,0.8781869999999996,-1.3642799999999997,-1.8396266666666627,1.2729666666666677,1.14003,-2.041046666666667,1.3629333333333336,-1.9685399999999997,1.9416799999999992,0.63917,-1.5495833333333335
1.27,-1.6500892307692207e-05,-3.1400715384615395e-05,-3.2653130769230704e-05,-5.409905384615275e-06,-5.900543846153725e-06,-9.425378461539344e-07,-1.09102e-05,-5.797251538461473e-06,-2.018669259259259,0.8840063703703706,1.9261655555555557,-1.8185911111111113,1.1015396296296298,1.7396629629629627,-1.754736666666667,1.0358870370370372,-1.8679759259259259,1.431417777777713,0.8914656296296297,1.88528,1.9085555555555582,0.9241407407407405,-1.2614767407407357,1.7809925925925887,1.2346274074074082,1.1483855555555567,-1.4499144444443797,1.3435411111111104,-2.002853333333334,2.0062862962962966,0.6548356296296295,-1.5765881481481492
1.28,-1.4854665384615313e-05,-3.23949e-05,-3.552593846153842e-05,-6.991566153846258e-06,-5.713327692307665e-06,-4.19623e-06,-4.744970384615335e-06,-3.3247030769230714e-06,-1.99808,0.8968371481481482,1.934664814814815,-1.82889,1.1270481481481485,1.7336925925925926,-1.7786033333333335,1.0367825925925926,-1.873790740740741,-2.0432818518518516,0.898329,1.9004981481481484,-0.44834296296300113,1.072742592592595,-0.9894897777777778,1.5142274074074065,1.261334074074074,1.2826640740740756,2.0059870370370367,1.283858518518518,-2.022694074074074,2.0328374074074076,0.654686851851852,-1.687294074074075
1.29,-2.1804232692307656e-05,-2.76951e-05,-3.351499807692306e-05,-6.397637307692296e-06,-8.22461e-06,-9.864370961538483e-06,9.360809615384064e-08,-5.054847307692297e-06,-1.9958422222222223,0.8871388888888887,1.9645055555555555,-1.8347011111111111,1.1328677777777776,1.6963988888888888,-1.7760644444444442,1.0343955555555555,-1.913927777777778,-2.0437322222222223,0.8714734444444444,1.92959,-1.7518955555555553,1.6623800000000004,-1.2268633333333199,1.5670444444444447,1.1646511111111109,1.526756666666667,1.9873333333333334,1.0702097777777766,-1.8776766666666658,1.8906555555555546,0.9095188888888902,-1.4412666666666527
1.3,-1.0768173076922968e-05,-3.095526346153852e-05,-3.380545000000025e-05,-7.985746538461484e-06,3.292429423076482e-06,-7.314356538461483e-06,-1.0287232692307664e-05,-1.0555153846153572e-06,-1.9516762962962964,0.8453634814814815,2.0074774074074075,-1.8752877777777777,1.0839344444444445,1.6558151851851852,-1.709225925925926,1.012917037037037,-1.9031870370370372,0.36136407407406423,0.8094064814814816,1.9176551851851853,-1.7292170370370368,1.811574074074074,1.5554033333333352,1.8642474074074067,0.9891927407407411,1.6103092592592592,1.9407881481481484,0.6082856296296304,-1.5589833333333338,1.5385429629629634,1.3153440740740738,1.8649881481481485
1.31,-1.043251923076912e-05,-2.8418146153845934e-05,-3.3143769230768896e-05,-5.40990576923347e-06,-6.223331538461484e-06,-3.3053430769225806e-06,-2.4699623076922968e-05,-3.712047307692225e-06,-1.8782662962962966,0.799260814814815,-2.0422422222222223,-1.9363059259259257,1.0461866666666668,1.6117992592592596,-1.65164,0.9514436296296299,-1.8305233333333335,1.9443688888888893,0.69362762962963,1.8682744444444446,-1.7075907407407405,1.6920703703703728,0.779865185185185,-1.6559674074074093,0.689748444444445,1.4922870370370382,1.778602592592593,0.24140462962962966,-1.4127729629629624,1.228952222222223,1.4176881481481494,1.3426437037037056
1.32,-1.8824961538461704e-05,-2.9296130769230702e-05,-3.19817307692307e-05,-7.75980230769234e-06,-1.1917300000000859e-05,-3.21495538461512e-06,3.3440707692304718e-06,-1.0083863846153714e-05,-1.8454477777777778,0.7582309999999997,-1.9609255555555547,-1.9765911111111114,1.03127,1.5536122222222217,-1.65164,0.9037001111111109,-1.8029233333333334,1.859324444444444,0.652598,1.8436522222222218,-1.799344444444446,0.9945622222222108,1.0805022222222311,-1.3530877777777777,0.6494645555555572,1.2259722222222194,1.6704377777777768,0.28691055555555717,-1.5410822222222236,1.1454077777777782,0.9551727777777692,1.0576733333333335
1.33,-1.939628461538457e-05,-3.5241894230769264e-05,-3.5254805769230735e-05,-5.12263288461537e-06,-3.712040000002276e-07,-8.005118269230223e-06,-8.305307115384631e-06,-6.384725769230739e-06,-1.8954288888888895,0.731971407407407,-1.887967407407407,-1.99808,1.0275381481481483,1.496769629629629,-1.6305948148148146,0.8814699999999998,-1.8166507407407406,1.8481348148148145,0.6561784074074073,1.8290388888888889,-1.961523333333332,0.015516703703703507,1.8884151851851438,-1.5485396296296314,0.8504360000000015,1.0879585185185188,1.3942722222222184,0.6281287777777816,-1.7651729629629658,1.198817037037038,0.21723385185184912,1.4555877777777824
1.34,-1.3589217647058928e-05,-3.088754117647054e-05,-3.689060980392148e-05,-7.967900784313802e-06,-4.907123921568008e-06,-1.772951764705849e-05,3.620247058832561e-08,-4.202812352941074e-06,-1.9685362962962965,0.6758728148148145,-1.823815555555555,-1.9939007407407408,1.0499122222222224,1.4167962962962959,-1.6094096296296296,0.8432745925925924,-1.796058148148148,1.7935259259259255,0.6257421111111109,1.828735925925926,-1.65268259259259,0.0,-1.1164559259259228,-1.7272788888888893,1.0085880000000005,1.1354074074074079,0.9997841481481471,1.049470555555557,0.025812962962986852,1.4154503703703722,0.11488348148148282,1.8840848148148157
1.35,-1.86313e-05,-2.71916e-05,-3.32342e-05,-6.21042e-06,-3.35698e-06,-3.52483e-06,-1.51064e-06,-8.39246e-06,-1.99405,0.588144,-1.70803,-2.00613,1.07961,1.31325,-1.63955,0.777478,-1.74026,1.69192,0.576059,1.80874,-1.49453,0.0926528,-1.07155,-1.80874,1.09572,1.28505,0.942641,1.20851,1.80874,1.92557,0.604257,-2.05447
1.36,-1.3345670588235415e-05,-3.3441456862744915e-05,-3.1973629411764584e-05,-7.803341960784194e-06,-7.596005294117707e-06,3.2914117649465954e-09,-4.36408e-06,-9.90968980392205e-06,-1.943022962962961,0.5307022962962948,-1.6052344444444415,-2.049997407407408,1.115268148148149,1.23343111111111,-1.7448825925925946,0.6564769999999973,-1.6629781481481463,1.6653618518518523,0.5068301851851834,1.7077359259259235,0.05669592592602468,1.0345491111111327,0.21603814814824074,-1.869468518518518,1.1376470370370375,1.4384292592592618,1.1642014814814874,1.2025496296296296,1.6743162962962925,-1.7119133333333247,0.7418192962962954,-1.6914699999999918
1.37,-2.8553717307692647e-05,-2.8192194230769117e-05,-3.224641730769265e-05,-7.801762307692251e-06,8.786261538462555e-06,-6.707514230769118e-06,-1.1507332692307861e-05,-1.3621601923080314e-06,-1.8084399999999978,0.42984281481481323,-1.353089259259255,1.890355925926011,1.1668874074074083,1.185384444444444,-1.8311196296296306,0.5421901851851839,-1.5498840740740722,1.7068366666666672,0.40925418518518386,1.6053885185185173,1.857237407407405,1.477375555555556,1.691924814814808,-1.7835240740740723,1.1403285185185184,1.5252677777777786,1.6028474074074144,1.1926985185185182,1.4752837037037008,-1.2016488888888814,0.725109,-1.3912803703703673
1.3800000000000001,-8.61196153846065e-06,-2.7733846153846114e-05,-3.053563846153831e-05,-9.644879230769153e-06,3.3440707692311164e-06,-2.2595124615393884e-06,-2.750145384615153e-06,-2.18204e-06,-1.7581677777777789,0.5398033333333365,-1.4242611111111159,2.0320911111111113,1.2116500000000003,1.1758422222222225,-1.8306766666666667,0.5362224444444449,-1.5110877777777776,1.7111688888888887,0.41134244444444484,1.6104600000000002,1.9313866666666673,0.9739733333333294,1.418887777777776,-1.1261582222222133,0.9498013333333304,1.6431300000000018,0.2900422222221648,1.0836333333333323,1.4511111111111115,-0.8155237777777763,0.8831111111111125,-1.5097455555555563
1.3900000000000001,-4.906364230769479e-06,-3.003208846153838e-05,-3.03807e-05,-1.3240730769230646e-05,8.134230384613731e-07,-5.861808461538379e-06,-5.4873742307689e-06,-4.209141538461622e-06,1.7726340740741073,0.9515929629629656,-1.9912166666666704,2.0380614814814817,1.2317851851851853,1.2064218518518521,-1.7956137037037032,0.6600574444444455,-1.5737581481481486,1.6738688888888886,0.5165283703703711,1.64178962962963,2.050742222222223,0.7583798148148142,1.3308618518518516,-0.36001803703703317,0.6887039259259246,2.0064281481481507,-1.523474444444441,0.8493916666666649,1.5592814814814824,-0.7498758148148148,1.1509229629629651,-1.602247407407408
1.4000000000000001,-2.7549859615384483e-05,-2.928000576923099e-05,-3.057437307692325e-05,-1.2349836538461626e-05,-9.706201923076438e-06,2.87603519230756e-06,-2.511285961537844e-06,-4.583573269231122e-06,1.543768148148145,1.1410770370370358,1.8596233333333336,2.036718148148148,1.2456655555555558,1.2675985185185192,-1.5551018518518487,0.8377540740740754,-1.8611133333333367,1.6644662962962962,0.7530091481481509,1.7969540740740764,0.3973133333332699,0.9859074814814861,1.373974444444445,-0.6622957407407477,0.8122411111111149,-1.6756548148148145,-1.1915048148148129,0.5669574074074052,1.7222074074074085,-1.1257070370370426,1.494979259259262,-1.8041185185185207
1.41,-2.0012834615384434e-05,-3.37377e-05,-3.545493461538443e-05,-1.1097417307692216e-05,-1.2181986538461084e-05,-3.2278690384613566e-06,9.683607692262213e-08,6.165228461537097e-07,1.547344444444444,0.9059386666666674,1.9121388888888888,2.0379122222222223,1.2635677777777776,1.3320488888888888,-1.2805744444444451,0.9296613333333331,1.4869222222222076,1.6131388888888891,1.0048583333333327,2.0034488888888884,-1.7774155555555564,1.4537966666666655,1.4336544444444441,-1.2232821111111098,1.2013486666666657,-1.8928933333333324,-1.1091522222222223,0.44759800000000016,1.7890488888888887,-1.6126966666666656,1.5880755555555557,-1.9425777777777775
1.42,-1.1839830769230813e-05,-3.1594384615384595e-05,-3.7230230769230766e-05,-7.5854988461538516e-06,-6.371814230769258e-06,-1.284689615384577e-06,-1.0916615384615356e-05,-4.5577530769231095e-06,0.5811329629629991,0.7073540000000008,1.866484444444445,1.9873359259259256,1.2538748148148149,1.4011262962962956,-1.1486870370370372,0.956666148148148,1.631941111111113,1.4693137037037047,1.2144818518518508,-1.986737407407408,-1.5386918518518526,1.7450351851851846,1.5039296296296292,-1.533914814814813,1.3442870370370377,1.9858418518518528,-1.3154881481481453,0.6414076296296273,1.8463396296296293,-1.8687174074074064,1.3985922222222238,-1.9936022222222223
1.43,-6.843085384615351e-06,-3.2097938461538496e-05,-3.8953961538461406e-05,-7.2949884615385275e-06,-1.02388e-05,-3.4344499999999227e-06,1.5364639230768019e-06,1.9367200000002206e-07,-1.601359259259262,0.6326054814814819,1.7590622222222234,-1.459168518518454,1.1904651851851862,1.5095996296296281,-1.1600222222222216,0.966812,1.385911851851854,1.3784548148148152,1.3788999999999985,-1.9469040740740742,-1.4252992592592606,1.7702496296296297,1.5816618518518508,-1.8924407407407362,1.1639025925925952,1.920493703703704,-1.8439503703703637,1.0132145925925884,1.8417148148148152,1.4676718518517886,1.1907607407407428,-1.8899096296296314
1.44,-3.030966923076985e-06,-3.407013846153844e-05,-3.5968134615384566e-05,-6.710742115384595e-06,5.477696923076889e-06,4.712691730768955e-06,-8.21170519230761e-06,-7.3272680769230626e-06,-1.287740000000001,0.5962006666666664,1.501240000000002,-2.002106666666667,1.0017226666666679,1.6892333333333325,-1.2850499999999991,0.935927666666667,1.32937,1.533466666666664,1.4596133333333332,-2.0141899999999993,-1.5912133333333305,1.6153800000000016,1.5562966666666675,1.9765933333333356,1.0326056666666676,0.6848233333333771,1.6784933333333356,1.236713333333333,1.7402566666666672,1.7335466666666695,1.044695000000001,-1.7859133333333332
1.45,-2.1110265384615136e-06,-4.796611538461535e-05,-2.9044355769230812e-05,-7.685557307692296e-06,1.310511153846162e-06,-2.3660244230769188e-05,-4.42540980769227e-06,-3.925087692307676e-06,-1.22866,0.6812440740740745,1.2840059259259253,-1.8860288888888883,0.6967608148148134,1.8781185185185194,-1.53033888888889,0.8455129259259255,1.3031085185185183,1.8118755555555563,1.4458896296296295,1.2935551851852054,1.257900740740759,1.3611474074074064,1.4336566666666664,1.859917777777778,0.9427909259259257,-2.000461851851852,1.2959437037037023,1.26088,1.6555151851851848,1.4244051851851844,0.9107128518518515,-1.831271851851852
1.46,-5.498999999999923e-05,-8.37954999999956e-06,-3.21108461538462e-05,-9.79980846153866e-06,-4.480283846153802e-06,-1.3027692307692396e-05,-1.51064e-06,-1.704313076923099e-06,-1.238952962962963,0.7107857407407409,1.2229881481481482,-1.581513333333333,0.2182783333333337,-2.0273207407407408,-0.8969822222222266,0.7406254814814816,1.211948888888889,-1.8330637037037043,1.3053470370370372,-1.9528681481481482,1.3430951851851858,0.9372728888888894,1.4442477777777778,0.8117925925925975,0.9010145185185184,1.881251851851852,1.1739,1.1604703703703705,1.7329514814814813,1.4314144444444443,0.8471537777777778,-1.9137755555555553
1.47,-3.0290319230769656e-05,-2.892169615384627e-05,-2.4809376923076788e-05,-6.752704615384577e-06,-2.659766923077116e-06,-1.9496333461540774e-06,6.197509615384962e-06,2.1562157692304604e-06,-1.4202266666666652,0.595305111111112,1.3289155555555547,-1.66372,0.0,-1.9569000000000003,1.3665200000000028,0.6570736666666671,1.1221322222222228,-1.277444444444447,1.0782633333333345,-1.6100122222222242,0.8840071111111125,0.34957411111111397,1.6225377777777765,-1.9873366666666672,0.9923217777777772,1.770246666666667,1.3888999999999987,1.0724433333333336,1.917958888888888,1.6453688888888873,0.8875867777777775,-1.9649566666666665
1.48,6.100675576923187e-07,-3.4028159615384596e-05,-3.857626730769225e-05,-8.179419615384593e-06,-1.8389190384615306e-05,2.48546115384622e-06,-7.798535576923033e-06,8.921836730769408e-06,-1.808442962962959,0.4835547037037035,1.5164633333333322,-1.1295874074074095,0.0,-1.7396611111111135,1.0579722222222214,0.5847117037037043,1.0475266666666665,-0.7734495555555585,0.9272741481481486,-1.2243274074074109,1.0957162962962919,0.2958624814814774,1.8241111111111108,-1.761448148148151,1.144955185185184,1.6314929629629644,1.5166103703703704,1.064684074074074,1.9652507407407416,0.8899737037037565,0.9753148148148142,-0.9871066666667203
1.49,-9.109050384615407e-06,-2.5771280769230813e-05,-3.0167659615384595e-05,-8.347269615384594e-06,-9.693275576922933e-06,2.0271015384616265e-06,-7.062581538461627e-06,-1.6100638461538373e-05,0.8801274074074263,0.5671065555555561,1.6000114814814816,-1.1325725925925934,0.13427925925926013,-1.5516759259259256,1.3384685185185201,0.5489042962962963,1.1519637037037043,-0.612314,0.9183215555555556,-0.8244748148148134,1.4687162962962972,0.6599084074074084,1.8270962962962962,-1.5406333333333329,1.2553625925925929,1.530041111111111,1.5195955555555556,1.0855729629629631,1.8488803703703698,-1.944811481481481,1.0349940740740742,1.9252637037037033
1.5,-9.00575807692311e-06,-2.445430384615378e-05,-3.82760999999999e-05,-1.2098061538461626e-05,1.17494e-06,-5.164573076929696e-08,-6.016748076923188e-06,-1.2214265384615407e-05,1.8848355555555563,0.6852722222222232,1.5979288888888887,-1.3504044444444452,0.6149998888888908,-1.5294422222222226,1.6905777777777802,0.6176852222222234,1.3150455555555565,-0.8146285555555571,0.966811666666667,-0.419847333333332,0.9994866666666382,0.9918773333333338,1.822616666666667,-1.6225455555555564,1.276552222222222,1.5974800000000007,1.5679388888888894,1.0872144444444443,1.7957644444444443,-1.7957611111111105,1.0505144444444443,1.9242244444444445
1.51,-1.5713292307692398e-05,-3.1671853846153804e-05,-2.8405276923076812e-05,-1.1194253846153802e-05,-4.325346923076747e-06,-7.785619230769143e-06,-1.936720769230703e-06,-9.128417692307604e-06,-0.818653703703708,0.8195517407407408,1.5536137037037037,-1.4664822222222222,0.8954945185185187,-1.6010570370370372,-0.8129888888888939,0.9136965555555558,1.4199274074074075,-1.1542071851851856,1.0290270370370371,-0.3188392592592593,-1.9906181481481482,1.0740833333333335,1.8740885185185185,-1.7068388888888888,1.252379259259259,1.7154918518518518,1.664322962962963,1.0545414814814815,1.8266470370370371,-1.693712222222222,1.04738,1.9506285185185184
1.52,-1.716259230769236e-05,-2.1659015384615427e-05,-3.5887471153846166e-05,-1.0038677115384623e-05,-2.0432409615384326e-06,-8.082587115384565e-06,-1.0774628846153837e-05,3.505464615384706e-06,-1.872599259259259,0.8034380370370371,1.552122222222222,-1.5592811111111107,1.1379411111111106,-1.7851722222222215,-1.2595429629629824,1.2295525925925919,1.2628259259259262,-1.4728999999999994,1.1534577777777775,-0.6267859259259251,-1.9275085185185183,1.1258585185185184,1.859917777777778,-1.5278014814814826,1.2161240740740742,1.810532962962963,1.6974425925925927,1.025001111111111,1.8857259259259258,-1.6641659259259258,1.0253012962962964,1.9849451851851851
1.53,-2.1762315384615372e-05,-2.7139903846153875e-05,-3.2611201923076875e-05,-9.56741e-06,-1.969001576923146e-06,-1.956088076923063e-06,-9.073543653846216e-06,-1.6914041538462365e-06,-1.9967333333333348,0.8070190000000003,1.5965800000000003,-1.6986300000000012,1.3172833333333345,0.7103366666667099,1.9363066666666657,1.4032200000000008,1.2407400000000006,-1.6677533333333352,1.314593333333335,-0.9923280000000038,-1.9806233333333338,1.1548066666666668,1.8100866666666662,-1.2192533333333313,1.1668899999999995,1.7953166666666664,1.7201233333333337,0.9990379999999998,1.9295933333333337,-1.705346666666667,0.9829249999999997,2.000766666666667
1.54,-1.1129646153846198e-05,-1.879914615384601e-05,-4.13038153846154e-05,-1.0832731538461472e-05,-2.85344e-06,1.7946938461538022e-06,5.823073846153945e-06,2.5823230769396044e-08,1.931682592592592,0.8328310000000003,1.627165925925925,-1.8458925925925935,1.3890451851851848,1.8612637037037023,1.9488414814814823,1.4484288888888888,1.3878551851851864,-1.8441014814814822,1.5337677777777798,-1.399342222222225,-1.4166481481480837,1.1091477777777767,1.7666688888888886,-1.1840485185185194,1.0906451851851855,1.9324274074074073,1.825451111111113,0.9841186296296298,1.9473518518518516,-1.7541396296296299,0.992772814814815,2.0159811111111114
1.55,-8.386004230769258e-06,-6.977360384615393e-05,-1.894759230769239e-05,-1.05745e-05,-5.545477692307665e-06,-9.025125384615406e-06,2.2595092307691868e-06,-2.0800438461538372e-05,1.9278062962962967,0.8550612962962963,1.5841985185185186,-1.917656666666667,1.3057922222222214,1.7900925925925926,1.9494403703703698,1.4127685185185181,1.4487274074074075,-1.864993333333333,1.7272829629629642,-1.617915925925927,2.0322466666666665,1.0169430740740737,1.7589074074074074,-1.2388033333333335,1.1509270370370377,1.8418670370370358,1.9773377777777785,0.996054925925926,1.9133333333333329,-1.789791481481482,1.0208255555555557,2.046566666666667
1.56,-1.3017980769230764e-05,-4.860203653846153e-05,-4.337936346153847e-05,-8.747527307692297e-06,-8.686203076923148e-06,-2.9857776923076646e-06,-2.850207692307742e-06,-8.708792692307704e-06,1.9685366666666666,0.8692352222222224,1.5571977777777777,-1.9774922222222222,1.1046731111111106,1.8132177777777778,1.8378333333333328,1.3714433333333331,1.4417122222222223,-1.7196711111111103,1.4900488888888743,-1.7988922222222228,2.0173266666666665,0.9878482222222222,1.7653255555555556,-1.3047488888888892,1.2564100000000002,1.7536922222222224,2.02672,1.0124633333333335,1.8758788888888889,-1.8360433333333335,1.03529,-2.0365699999999998
1.57,-1.2730726923077032e-05,-2.8363286538461733e-05,-2.661379423076937e-05,-5.732693076922967e-06,-1.0006296153821332e-07,-7.001251730769259e-06,-1.2169059615388202e-06,-1.7101282692307417e-05,1.9554077777777779,0.9014624814814814,1.577488148148148,-1.957198888888889,0.9053415555555557,1.8072533333333334,1.5955340740740744,1.3022107407407408,1.4261951851851853,-1.411724444444445,-1.9069200000000004,0.3817981481481385,2.0041977777777777,1.0236559259259257,1.7605551851851853,-1.4038185185185184,1.2802796296296297,1.7787529629629628,1.9240770370370375,1.02321,1.8209751851851852,-1.8873677777777775,1.03529,-2.005538888888889
1.58,-2.3621511538461752e-05,-1.9625488461538523e-05,-5.294996923076886e-05,-8.211698461538521e-06,-9.541586923077045e-06,-4.874085769230739e-06,-1.2259453846153815e-05,1.717225384615991e-06,1.9451129629629629,0.940403370370371,1.58718,-1.8524566666666638,0.7494278148148135,1.748172222222221,1.4400711111111106,1.2831181481481488,1.376217407407407,-1.0776625925925907,-1.5925570370370334,1.8197866666666649,1.99808,1.0839285185185188,1.7026651851851862,-1.4803581481481503,1.257299259259258,1.812320740740742,1.7265303703703685,1.012015555555556,1.8600644444444454,-1.9725651851851862,1.0436485185185187,-2.0113540740740743
1.59,-2.2272276923076592e-05,-2.0154861538461405e-05,-2.423480769230789e-05,-6.249154615384649e-06,-2.2336861538460546e-06,-1.51064e-06,1.8850746153846486e-06,-8.844366153845823e-06,1.9242222222222218,0.9784491111111117,1.58718,-1.6793899999999977,0.6964624444444443,1.6847611111111107,1.418437777777778,1.333842222222223,1.359798888888889,-1.0993033333333364,-1.4716977777777782,1.7921811111111123,1.980174444444444,1.0764711111111107,1.7877077777777794,-1.597476666666668,1.1924011111111104,1.866035555555556,1.6467099999999997,1.0478266666666676,1.9018422222222222,-2.0173244444444447,1.0429022222222222,-2.028513333333333
1.6,-1.577139423076926e-05,-2.6487871153846304e-05,-2.6794544230769125e-05,-7.901826346153786e-06,-7.130367115384631e-06,-5.054842115384525e-06,1.2911265384633574e-07,6.100676730768958e-06,1.8796088888888884,1.0284333333333338,1.5998666666666668,-1.5767411111111116,0.7276453703703712,1.692367777777778,1.43008,1.40784925925926,1.3954611111111117,-1.3405596296296332,-1.5579422222222243,1.7401092592592116,1.9725655555555566,1.0976596296296304,1.8470903703703696,-1.7353333333333343,1.147344074074074,1.8943844444444449,1.6605851851851856,1.1167551851851856,1.8939366666666668,-2.0349270370370376,1.0233592592592593,-2.0137425925925925
1.61,-1.84634e-05,-3.0880958823529467e-05,-5.473203921568607e-05,-8.389168823529464e-06,-1.2111449803922472e-06,-1.1285356862745137e-05,-4.281800588235269e-06,-9.011203725490364e-06,1.8160540740740738,1.0782614814814817,1.6237333333333335,-1.6674507407407413,0.8249230000000004,1.7416077777777783,1.4321644444444444,1.474981851851852,1.465284814814815,-1.74428851851852,-1.8342570370370381,-1.8985611111111096,-0.031777407407431735,1.1731551851851856,1.7444399999999993,-1.8460444444444448,1.1321240740740741,1.9382518518518521,1.6880392592592592,1.1379403703703703,1.9219825925925926,0.0759425925926176,1.0376829629629631,-2.0209062962962965
1.62,-7.21752e-06,-2.43381e-05,-3.30663e-05,-8.22461e-06,-4.19623e-06,-8.39246e-07,-7.88891e-06,-4.19623e-06,1.75637,1.14406,1.63955,-1.78054,0.906386,1.89737,1.43813,1.50259,1.50661,-1.93765,-2.03433,-1.55496,-1.92154,1.20851,1.65164,-1.88528,1.12392,1.96585,1.70401,1.12392,1.94168,2.01016,1.07155,2.04239
1.6300000000000001,-1.729508235294166e-05,-2.16526e-05,-2.373254901960652e-05,-8.349674705882292e-06,-4.9532005882354145e-06,-3.85395019607795e-06,-5.117759411764586e-06,1.7133801960782206e-05,1.7783062962962966,1.2256751851851866,1.635823333333333,-1.840527407407408,0.9723318148148156,0.06937518518507613,1.4661807407407408,1.530486666666667,1.4951266666666658,-1.8769307407407383,2.05447,-1.461708148148149,-1.9561537037037062,1.1595774074074054,1.6604418518518538,-1.901096666666667,1.056031851851851,1.965999259259259,1.7338470370370376,1.0881125925925919,1.9515262962962967,1.982412592592592,1.0736396296296296,2.042091481481482
1.6400000000000001,-1.4415682692307354e-05,-3.3147021153846097e-05,-3.2097934615385295e-05,-1.3334315384615215e-05,-7.398281538461764e-06,-3.0277457692308823e-06,-4.6255386538463235e-06,5.674596346153281e-06,1.7923314814814817,1.3110122222222236,1.608066296296296,-1.891848148148149,1.0451419629629641,-1.9531714814814796,1.4625985185185182,1.5349592592592591,1.4396222222222212,-1.7125062962962938,2.0428374074074074,-1.5792711111111133,1.838282592592675,1.0190292592592571,1.7735359259259278,-1.9288440740740744,1.0432007407407409,1.9385451851851847,1.7598033333333336,1.07558,1.9539188888888888,2.004787407407408,1.044394444444444,2.054321111111111
1.6500000000000001,-1.1788184615385077e-05,-5.2046200000000654e-05,-2.5629292307692192e-05,-5.358260769231117e-06,9.16713846153769e-07,-5.693958461538307e-06,-8.043853846153189e-06,9.825671538462118e-06,1.7971077777777775,1.365173333333334,1.5898666666666665,-1.922878888888889,1.1498777777777789,-1.895578888888889,1.451558888888889,1.517804444444444,1.420228888888889,-1.5424199999999986,1.918407777777776,-1.7165388888888897,1.8714066666666656,0.9609927777777778,1.8015799999999997,-1.8915477777777772,1.0805011111111114,1.8964688888888885,1.759061111111111,1.0894511111111111,1.9492922222222224,-1.9770422222222208,1.0093333333333334,2.0370166666666667
1.6600000000000001,-2.265314615384611e-05,-2.3918476923076386e-05,-3.0238673076922167e-05,-3.925087307692721e-06,-6.862452692307568e-06,-6.236243076923243e-06,-1.4848171538459886e-06,3.46544192307708e-05,1.8597688888888895,1.427095555555556,1.5794277777777777,-1.90721037037037,1.2483537037037042,-1.908256666666667,1.5030292592592596,1.4879618518518516,1.4329066666666668,-1.415599629629629,1.707289259259258,-1.7971092592592597,1.791584444444444,0.9885948148148151,1.7777133333333333,-1.7945681481481475,1.106615925925926,1.8629003703703702,1.7411555555555553,1.09169,1.968686666666667,-1.888264444444444,1.0108222222222223,2.0303
1.67,-7.55322e-06,-4.1165048076923434e-05,-3.502239807692368e-05,-1.9063836538461484e-05,-4.86763e-06,-3.0923034615385166e-06,-6.978656538461483e-06,-3.892807788462476e-06,1.9345155555555555,1.4397718518518519,1.59524,-1.8194888888888887,1.2956474074074074,-1.9377992592592592,1.6273185185185188,1.4727481481481481,1.472147037037037,-1.402920740740741,1.5318270370370368,-1.8882629629629633,1.8293296296296297,1.0484207407407409,1.8041188888888888,-1.706844074074074,1.1361551851851852,1.8199344444444443,1.726538148148148,1.0860181481481481,1.9585403703703703,-1.8821514814814815,1.016791851851852,2.035076296296296
1.68,-1.6132917307692296e-05,-2.8069534615384594e-05,-3.7320651923076885e-05,-1.214325192307689e-05,3.16331250000011e-07,-1.0690708269230702e-05,1.9238092307691867e-06,8.327909230770223e-07,2.002551111111111,1.44216,1.5665911111111113,-1.7156400000000003,1.2980355555555556,-1.9604777777777775,1.7156444444444443,1.4739422222222223,1.48647,-1.4470866666666666,1.4793144444444446,-1.9765888888888887,1.9403399999999997,1.0746844444444443,1.8458966666666665,-1.6650633333333336,1.1516722222222222,1.8163522222222221,1.7134033333333334,1.0872122222222222,1.95377,-1.9107944444444445,0.9941151111111113,2.0159800000000003
1.69,-2.0845588461538468e-05,-2.3821657692307605e-05,-4.404102692307679e-05,-3.873443461538406e-06,1.588110769230725e-06,-5.9521911538461105e-06,2.065803846152185e-07,-7.353084999999851e-06,-2.0510407407407407,1.441115185185185,1.5454074074074073,-1.6507381481481485,1.2670033333333335,-1.9713725925925927,1.7854718518518515,1.47842,1.4584229629629633,-1.595088518518517,1.5434659259259251,-0.539651851851892,0.4945981481481876,1.0655833333333335,1.8785696296296293,-1.624030740740741,1.1495825925925927,1.8464925925925926,1.7046007407407409,1.0976603703703702,1.9703277777777777,-1.950184074074074,0.962783,1.990620740740741
1.7,-1.3621623076923099e-05,-5.86826461538461e-05,-3.270477692307719e-05,-6.429916153846198e-06,-5.952189230769297e-06,2.4531823076922525e-06,-3.5506530769230992e-06,-4.454460769230704e-06,-2.021203703703704,1.449622962962963,1.5463029629629628,-1.601207407407408,1.2294048148148153,-1.956753703703704,1.797257037037037,1.4578307407407411,1.434697037037037,-1.8691718518518483,1.7090822222222202,2.045822962962963,-2.0098670370370377,1.0451411111111113,1.921989259259259,-1.594193703703704,1.1692762962962961,1.828440740740741,1.6610318518518523,1.1146674074074074,1.9950962962962961,-1.9749548148148146,0.9730776296296294,1.9367529629629636
1.71,-1.0803646153846188e-05,-2.5806821153846244e-05,-2.2097948076923065e-05,-1.0458296153846125e-05,-7.672645000000047e-06,2.7501476923077473e-06,-3.19558903846158e-06,-6.691371538461394e-06,-2.027616666666667,1.4609566666666665,1.573753333333333,-1.5536133333333337,1.2326866666666665,-1.7939766666666679,1.7832266666666667,1.3978466666666673,1.466333333333333,1.8705100000000028,1.8906533333333324,-1.9255666666666689,-1.951076666666667,1.0420066666666667,1.9027400000000005,-1.5818133333333328,1.18837,1.7886033333333335,1.6059800000000004,1.11989,2.0209066666666664,-2.01285,0.9936686666666664,1.9161666666666666
1.72,-1.8763623076923064e-05,-4.130701923076934e-05,-3.91089e-05,-1.6416971153846163e-05,-4.19623e-06,-5.067758846153838e-06,1.1103858846154012e-06,-3.6410343461537304e-06,-2.0288092592592593,1.4696137037037036,1.6083666666666667,-1.5398866666666666,1.2619266666666666,-1.7865159259259262,1.7871074074074074,1.322948148148148,1.5069103703703703,1.5121359259259248,1.9628666666666668,-1.5424199999999986,-1.9164633333333332,1.0327607407407406,1.8272444444444442,-1.6197103703703704,1.18837,1.7578625925925926,1.577337037037037,1.1264574074074074,2.0197125925925925,-2.0555166666666667,1.016942962962963,1.9379503703703704
1.73,-1.7443438461538594e-05,-2.97093e-05,-3.285971538461578e-05,-4.635222307692396e-06,-3.989646923076747e-06,-2.4402692307694512e-06,-1.5816584615384794e-05,2.6739661538459865e-05,-0.8405855555555604,1.4884103703703704,1.6687918518518519,-1.650444074074074,1.2601366666666667,-0.8659529629629679,1.7874059259259258,1.242977777777778,1.50259,1.3277251851851852,1.8643985185185188,-1.1691233333333335,-1.9430244444444444,1.0144066666666667,1.7793488888888889,-1.6661081481481481,1.20046,1.7518992592592593,1.5473477777777778,1.1436122222222223,1.9933037037037038,2.0520848148148145,1.0115707407407408,1.93765
1.74,-3.305342692307626e-06,-5.154261153846191e-05,-3.823736538461531e-05,-1.02388e-05,-2.911540769230736e-06,-7.333722692307626e-06,-1.146539615384622e-05,-4.37699269230778e-06,2.04239,1.5119855555555555,1.7250399999999997,-1.7742777777777774,1.214336666666667,1.707584444444446,1.78457,1.172257777777778,1.5182544444444444,1.4712511111111097,1.6010611111111128,-1.1570444444444437,1.0984022222221932,0.9874016666666668,1.7733855555555555,-1.6561155555555558,1.2035944444444444,1.782333333333333,1.532578888888889,1.1740533333333332,1.9725644444444446,2.0401511111111112,0.9968011111111111,1.943918888888889
1.75,-1.4844973076923155e-05,-5.747546346153866e-05,-3.266928846153847e-05,-7.004479615384593e-06,-2.9599601923077034e-06,-3.557115192307626e-06,1.2653229615385056e-06,-2.6791449999985237e-06,-2.045071851851852,1.5094485185185185,1.7596585185185185,-1.7539870370370372,1.1813622222222222,1.5649503703703704,1.8232155555555554,1.0648311111111115,1.588528148148148,1.8038214814814808,1.0506640370370386,-1.5303340740740732,1.77263962962963,0.9526374074074074,1.7401133333333334,-1.597921851851852,1.2053781481481483,1.8129192592592591,1.5410762962962963,1.1892681481481482,1.9637603703703705,0.9945648148148347,1.0051570370370368,1.951827037037037
1.76,-1.2378869230769088e-05,5.096805153846717e-06,-3.3950740384615404e-05,-1.0484119230769185e-05,1.4202592307691867e-06,-3.5861598076922966e-06,-1.1491219230769186e-05,-6.2943423076925946e-06,-1.982412592592592,1.4557374074074068,1.8014288888888892,-1.670438888888888,1.202243703703704,1.5977725925925934,1.856037777777778,0.9782992592592586,1.61538,-0.971289629629682,0.38821662962962167,-1.7959118518518544,1.605535925925924,0.9287655555555552,1.7192244444444442,-1.5442107407407402,1.1815114814814813,1.8517118518518523,1.5858392592592598,1.1564459259259254,1.9488418518518518,-1.977487037037036,1.01112,1.9816640740740743
1.77,-1.568096923076933e-05,-2.9399423076923387e-05,-3.342782307692339e-05,-4.977378076923134e-06,-1.3750697692309043e-06,-1.67849e-07,-4.041292692307847e-06,-1.0561597307691653e-05,-1.9107955555555556,1.3629377777777774,1.8172477777777776,-1.7344411111111127,1.224182222222222,1.7366788888888895,1.782785555555555,0.9515931111111111,1.5867344444444442,-1.5862866666666648,0.13651750000000223,-1.756818888888888,1.598371111111112,0.9318991111111113,1.792183333333334,-1.472593333333333,1.13645,1.8579777777777775,1.6288111111111112,1.084082222222222,1.9412322222222225,-1.92959,0.9730778888888886,2.00613
1.78,-1.6307223076922814e-05,-8.999302307692396e-06,-2.428646153846178e-05,-1.1349192307692397e-05,-6.107127692307605e-06,-6.778527692307604e-06,-4.19623e-06,-5.190416923077055e-06,-1.9297451851851852,1.288487037037037,1.8132177777777778,0.7531581481481529,1.1404759259259258,1.8172477777777778,1.6804311111111112,0.9802394814814815,1.57107,-1.3630866666666666,0.6184311111111116,-1.620008148148148,1.8412692592592594,0.9733762592592593,1.9263151851851854,-1.4494737037037038,1.1210840740740742,1.8159014814814816,1.6532748148148149,1.0263414814814815,1.9792792592592592,-1.938097777777778,0.924439,1.9919574074074073
1.79,-2.3266442307692324e-05,-2.9547955769230812e-05,-3.2591821153846126e-05,-1.0645513461538486e-05,-7.21752e-06,-4.796616538461514e-06,-3.6668628846154343e-06,-1.9722284615384726e-05,-2.0098614814814817,1.1937451851851855,1.9093051851851848,1.4159025925925939,0.9448791111111117,1.68505888888889,1.6708807407407404,1.049018148148148,1.6207496296296293,-1.5106433333333322,0.8969860740740738,-1.609558888888889,1.2896788888889088,1.0130666666666666,1.9933037037037038,-1.5070659259259258,1.134217037037037,1.7848703703703703,1.649401111111111,1.0390214814814813,2.020457037037037,-1.9589903703703702,0.921455074074074,1.9719714814814817
1.8,-1.4493151923076937e-05,-4.759813653846144e-05,-2.4228351923076935e-05,-9.786902884615357e-06,-3.521602115384595e-06,-4.641678076923063e-06,-3.976733846153874e-06,-1.2540265384615432e-05,0.6781066666667113,1.105119999999999,-0.6593133333333769,1.1494299999999995,0.9278706666666677,1.385763333333331,1.765773333333334,1.105116666666667,1.7093800000000006,-1.8194833333333356,0.8781873333333325,-1.654323333333334,-2.02225,1.0500666666666667,1.9631666666666663,-1.5589866666666672,1.1601733333333337,1.733546666666666,1.6288099999999999,1.090353333333334,2.0383600000000004,-2.003446666666667,0.9506983333333336,1.9269099999999997
1.81,-1.9483461538461695e-05,-3.801141538461559e-05,-4.73205846153846e-05,-1.0393784615384605e-05,-3.18914e-06,-7.579042307692329e-06,-8.327903076923023e-06,-9.515763076923175e-06,1.9522718518518507,0.9641256296296284,-1.730707777777775,1.4276900000000032,1.228801851851854,1.0405194074074058,1.4076937037036417,1.1759885185185195,1.841421851851853,-1.9574944444444435,0.6445410370370336,-1.7439885185185193,-2.042987037037037,1.044993333333333,1.90945,-1.6097081481481486,1.1873251851851854,1.6710351851851848,1.5898681481481476,1.1603262962962968,-2.054322222222222,-1.4412674074073426,0.974868,1.894386296296296
1.82,-2.1000557692307752e-05,-1.8321423076922965e-05,-3.009664615384622e-05,-4.919274230769297e-06,-2.3240650000001102e-07,-5.409906538461516e-06,-8.70233692307689e-06,1.4848198461539567e-06,1.872002222222222,0.8972847037037036,-1.5349581481481473,1.8655907407407448,1.4646877777777796,0.8887804814814805,-1.8084455555555539,1.245961481481482,1.9489911111111118,-1.8079977777777763,0.3729987777777764,-1.8063555555555557,-2.021052222222222,1.000830555555555,1.9373551851851856,-1.6209025925925926,1.224776666666667,1.6207496296296293,1.533618518518518,1.1970270370370373,-2.010013333333333,2.0155359259259256,0.9621859999999998,1.8645429629629628
1.83,-8.74429942307724e-06,-4.0180557692308964e-05,-2.4283248076920576e-05,-7.178785384615566e-06,-4.42218192307665e-06,2.0658394230751038e-07,-9.28981192307665e-06,-8.043852884614657e-06,1.8347011111111111,0.9395075555555559,-1.4376855555555554,-1.7769622222222219,1.5352633333333328,0.9318991111111118,-1.6507444444444443,1.2572999999999999,1.9976322222222223,-1.6547677777777776,0.31108055555555575,-1.83291,-1.9228766666666663,0.9139949999999999,1.5885244444444295,-1.6368633333333336,1.2716255555555556,1.5715188888888887,1.4810977777777776,1.2040422222222222,-1.9627166666666667,1.9752544444444444,0.92429,1.8535066666666666
1.84,-2.5429125000000717e-05,-2.4060501923076317e-05,-2.9964288461537554e-05,-7.001251730769259e-06,-3.047110192307582e-06,-9.56741e-06,3.5506561538489113e-07,-8.037399807692032e-06,1.882446296296296,1.0660296296296294,-1.3266811111111112,-1.745928148148148,1.300122592592593,1.2374629629629623,-1.6722259259259258,1.2000140740740743,1.9916618518518518,-1.6308951851851852,0.4149235185185182,-1.801875925925926,-1.8572351851851852,0.8734124814814815,-1.9815140740740742,-1.661932962962963,1.29311,1.5309351851851851,1.47036,1.20046,-1.9257151851851853,1.9442174074074074,0.8992245185185186,1.8475333333333335
1.85,-1.1149015384615051e-05,-5.187836153846227e-05,-1.9057380769230345e-05,-8.231065769230739e-06,-6.223331538461478e-06,-1.8205169230770445e-06,-3.105214615384221e-06,-1.4441457692307663e-05,1.716535555555459,1.161662592592593,-1.2138848148148138,-1.7342951851850905,1.075133703703702,1.478717777777778,-1.755930740740742,1.1622588888888894,2.0323888888888897,-1.8372448148148175,0.5953055555555579,-1.7247462962962965,-1.8940848148148164,0.886244,-1.94974,-1.6989337037037047,1.2717766666666661,1.52273,1.4752848148148152,1.2001614814814814,-1.9033318518518512,1.9249729629629628,0.878187,1.7974070370370359
1.86,1.8385969230769595e-05,-3.539037692307633e-05,-3.892813846153774e-05,-8.069673846153713e-06,-1.2007651538458892e-06,-4.19623e-06,-2.775970769230703e-06,-1.949632307692539e-06,-1.9045311111111096,1.1713644444444442,-1.162414444444444,1.8069511111111092,1.0437966666666676,1.426489999999998,-1.8096400000000001,1.204036666666667,-0.22648333333340842,-1.9327299999999998,0.6960150000000004,-1.7590555555555565,-1.9918144444444457,0.8795301111111109,-1.943023333333333,-1.7474188888888893,1.2546211111111112,1.5182522222222221,1.4931866666666669,1.19643,-1.8682744444444441,1.9085599999999998,0.8849008888888891,1.7518977777777778
1.87,-2.160090576923101e-05,2.717863653846002e-06,-3.5616328846153696e-05,-9.002530192307586e-06,-5.148450769230633e-06,-6.316940192307586e-06,-3.4570492307691552e-06,-3.6862242307692613e-06,-1.6556633333333308,1.0294729259259228,-1.0050060740740694,1.8403714814814827,1.1785277777777785,1.255218518518518,-1.824412222222222,1.3056459259259274,-2.0303,-1.7794974074074057,0.6637878148148145,-1.8367907407407407,2.041196296296296,0.8617755925925925,-1.904823333333333,-1.7972566666666667,1.25283,1.5061625925925926,1.4902014814814812,1.20449,-1.8660351851851855,1.8927433333333332,0.893704185185185,1.7618922222222226
1.8800000000000001,-0.00024207456862745236,-3.578150784313745e-05,-1.9085445098039332e-05,-7.753974313725631e-06,-4.538509803921466e-06,-5.249403921568563e-06,-1.67849e-07,-9.646398235294195e-06,-1.3417499999999989,0.7776267037037038,-0.6385731111111111,-0.09653666666669047,1.2889300000000006,1.1937437037037035,-1.796058148148148,1.488862222222223,0.06057925925928398,-1.6162759259259256,0.6509570000000001,-1.7911381481481476,2.005985925925926,0.854017,-1.88931,-1.8085907407407407,1.25283,1.4819974074074072,1.4782659259259259,1.1919574074074073,-1.8913996296296296,1.8667818518518517,0.8614767037037036,1.8173966666666668
1.8900000000000001,0.0008048370000001909,-4.246590000000036e-05,-3.541620000000215e-05,-8.224610000000572e-06,-5.706870000000286e-06,-6.546120000000143e-06,-5.53902e-06,5.035479999997133e-07,-1.289080000000007,1.4542500000000156,-1.7080299999998942,-1.8127699999999969,1.3817299999999995,1.236710000000006,-1.853060000000004,1.5227299999999946,1.873199999999996,-1.5630099999999987,0.6928820000000006,-1.6516400000000007,1.9940500000000005,0.8580449999999995,-1.9134800000000012,-1.7966599999999995,1.2487999999999995,1.4622999999999997,1.4905000000000008,1.1359999999999983,-1.9014000000000002,1.8530600000000004,0.8056759999999986,1.84097
1.9000000000000001,0.00018377470588231467,-4.142588823529171e-05,-3.788786078431343e-05,-9.646398235293758e-06,-5.825355098035606e-07,-4.19623e-06,-1.4774041176470829e-05,-7.73094098039288e-06,-1.6577570370370456,1.9063151851851838,1.232984925925911,-1.6811777777777759,1.3287674074074054,1.5304881481481545,-1.9913637037037046,1.2722222222222175,1.7542855555555557,-1.526610740740741,0.7070555925925925,-1.7105729629629651,2.0237377777777783,0.834322592592592,-1.9555562962962967,-1.780694074074074,1.2231322222222214,1.4485729629629625,1.5282477777777785,1.060658518518517,-1.8976633333333328,1.9021418518518538,0.7382384074074059,1.8390296296296296
1.9100000000000001,-0.0006937534230769207,-3.188489423076912e-05,-2.525807307692302e-05,-8.063215769230883e-06,-5.8489021153841635e-06,-3.847618461538235e-06,-2.840528461538235e-06,-4.990284807691517e-06,1.8370955555556348,1.5864388888888825,0.6904949259259205,-1.5659940740740723,1.1183948148148113,1.748620000000002,1.8845340740741574,0.850585111111104,1.9930085185185238,-1.6626774074074104,0.7204832222222226,-2.027767037037043,-1.8951318518519367,0.7829979999999992,-1.965700740740741,-1.7571162962962958,1.1813640740740736,1.4187359259259256,1.5545122222222223,0.996203703703703,-1.8815485185185183,2.038510740740743,0.6391695925925911,1.8408207407407409
1.92,-0.0001622713846153893,-2.0826261538461407e-05,-3.786939230769211e-05,-6.442827692307891e-06,-1.7688707692307033e-06,-7.165873846153515e-06,6.068394615382631e-07,-3.111670769230703e-06,1.6869977777777796,0.9466702222222315,0.9224999999999934,-1.5683855555555541,0.6893011111111166,1.5634588888888923,1.8870711111111111,0.20634268888889382,-1.37144333333334,-1.7268288888888912,0.9744216666666625,1.4649866666666749,-2.0379122222222223,0.6888528888888902,-1.9488388888888892,-1.7098255555555562,1.1530100000000003,1.3736788888888896,1.5272066666666675,0.8831105555555572,-1.8696177777777778,-1.9792777777777781,0.5483077777777786,1.7872555555555565
1.93,7.651342692307627e-05,-3.364731923076966e-05,-2.7940469230768868e-05,1.1103827692310726e-06,-4.409269999999787e-06,-4.144584230769473e-06,-4.841806923077044e-06,-9.870831153846306e-06,1.7175848148148127,0.1126455000000145,1.7654755555555386,-1.7272781481481452,0.4080603703703734,1.3016125925925968,-1.6317918518517591,0.004177577777779155,-0.8887803703703778,-1.5216807407407444,1.2191111111111081,0.9741218518518582,-2.053575185185185,0.5590495555555579,-1.9003537037037046,-1.6658088888888896,1.1142174074074083,1.2975862962962978,1.4429048148148163,0.729435185185188,-1.8352974074074082,-2.0068777777777767,0.486390000000001,1.7492148148148152
1.94,6.553226346153851e-05,-2.8224473076922965e-05,-3.3498836538461484e-05,-1.1297546153845933e-05,-4.722375192307775e-06,-9.360780769244556e-08,-3.1213515384612904e-06,-3.4279963461539014e-06,1.7698014814814815,0.0,-1.474684999999998,-1.755329259259259,0.5818775185185189,1.188224814814815,-1.3714437037037033,0.17724870370370474,-1.671925555555557,-0.516974814814807,0.6599087407407389,0.9845657777777783,-2.048652962962963,0.4411825555555554,-1.771445555555555,-1.6670037037037038,1.0899029629629629,1.2305985185185184,1.3548774074074075,0.5495009629629627,-1.7422025925925924,2.0040425925925924,0.3707605185185183,1.7189240740740739
1.95,1.6868823653845725e-05,-3.1445951923076885e-05,-3.202046538461541e-05,-9.192975384615406e-06,-3.5635690384615163e-06,-3.976738269230703e-06,-6.1168113461538516e-06,-6.475106538461483e-06,1.4332088888888903,0.0,-0.771659222222223,-1.6395544444444448,0.8611785555555548,1.1941922222222223,-1.224628888888889,0.8898249999999982,1.4349988888888747,0.5465173333333369,0.023722666666667447,1.5204911111111095,-2.0235922222222222,0.4006003333333334,-1.5804677777777782,-1.704002222222222,1.0863177777777777,1.160177777777778,1.3584566666666666,0.46953000000000006,-1.689681111111111,1.9586855555555556,0.27885355555555574,1.6628233333333335
1.96,0.00012274307692307717,-2.453177307692311e-05,-3.0722896153846126e-05,-1.2653257692307704e-05,-7.146506538461555e-06,-5.603577692307703e-06,1.1426630769230715e-06,-1.7817823076922967e-06,1.4366407407407364,0.5868027777777686,-1.4660292592592512,-1.5576455555555548,0.9108622222222231,1.321759259259258,-1.432760740740739,1.2110474074074074,1.8990122222222203,0.7385360740740663,0.14621518518518134,0.6676670370370734,-2.03836,0.3395780000000004,-1.1357022222222248,-1.7386207407407406,1.1668855555555548,1.1340633333333336,1.4703614814814805,0.43476714814814854,-1.7762203703703698,1.9733092592592592,0.2055970740740744,1.6300011111111112
1.97,-3.690102307692349e-05,-2.09812e-05,-3.26790000000001e-05,-5.125860769230704e-06,-1.2976046153846198e-05,-6.455753846145027e-08,1.0458338461538794e-06,-6.8559969230769005e-06,-1.486772222222163,1.4205251851851806,1.0681203703703133,-1.8160585185185145,0.6921357407407437,1.4939303703703686,-1.677301481481479,1.0884074074074097,-1.4236618518517878,1.8275381481481372,0.5148869999999978,-1.343388148148154,-1.7947218518518564,0.4171611481481462,-1.111531851851849,-1.776959259259259,1.2743077777777767,1.106763703703704,1.5628622222222217,0.3897090000000003,-1.8133670370370372,2.010012222222222,0.16814800000000032,1.6171711111111113
1.98,-7.04643711538463e-05,-3.955434807692306e-05,-3.418960384615387e-05,-5.53902e-06,-7.446699807692342e-06,-4.305978076923063e-06,-8.279484038461532e-06,-7.162645961538468e-06,-1.819486666666666,0.9614383333333285,1.5227300000000008,1.763086666666662,0.3961243333333318,1.6261233333333347,-1.871853333333336,0.9681563333333322,-0.7452499999999567,-1.807399999999999,0.6405123333333341,-1.0487233333333332,-1.4059066666666662,0.7049670000000011,-1.7510033333333368,-1.811426666666667,1.3145933333333333,1.103776666666667,1.5388433333333327,0.4068666666666676,-1.7697999999999994,0.6888499999999549,0.2323030000000013,1.5589866666666659
